time,motor_angle,motor_setpoint,pendulum_angle,pendulum_setpoint,rpm,voltage,current
1.875,0.0,0,0.0,0,0,0,0
3.186,0.0,0,0.0,0,0,3.404135182548045,0
3.196,0.0,0,0.0,0,0,11.808066888946952,0
3.204,0.0,0,0.0,0,0,11.874798614664458,0
3.21,4.92,0,0.0,0,182,11.941606493035739,301
3.222,16.69,0,0.0,0,345,12.025610936663158,285
3.23,53.78,0,0.0,0,601,12.09290143365517,257
3.237,72.24,0,0.0,0,680,12.152554605707625,248
3.245,105.99,0,0.0,0,809,12.220166503017936,235
3.254,148.0,0,0.0,0,937,12.279785925596952,236
3.266,195.29,0,0.0,0,1061,12.390477758755303,208
3.278,277.73,0,0.0,0,1234,12.492963777674477,188
3.286,375.99,0,0.0,0,1400,12.570292337592718,172
3.293,448.24,0,0.0,0,1495,12.63049990103106,171
3.3,529.45,0,0.0,0,1598,12.691024310907551,165
3.317,590.97,0,0.0,0,1666,12.821930874270404,149
3.33,766.58,0,0.0,0,1830,12.934980321403243,129
3.339,904.92,0,0.0,0,1933,13.02238210673903,120
3.346,1009.51,0,0.0,0,2018,13.092523375834205,118
3.353,1115.5,0,0.0,0,2084,13.171483600790824,109
3.361,1221.85,0,0.0,0,2145,13.233194424789682,103
3.365,1325.74,0,0.0,0,2198,13.286222572348152,97
3.369,1385.68,0,0.0,0,2232,13.322003556309237,96
3.373,1438.76,0,0.0,0,2267,13.357553743409808,94
3.381,1505.03,0,0.0,0,2292,13.393172458516062,91
3.387,1552.14,0,0.0,0,2313,13.464337906632515,90
3.397,1675.8899999999999,0,0.0,0,2368,13.517629027816044,84
3.408,1760.27,0,0.0,0,2406,13.624891942966315,83
3.415,1934.6399999999999,0,0.0,0,2467,13.714387050798102,76
3.427,2095.48,0,0.0,0,2528,13.795483539913555,72
3.438,2235.58,0,0.0,0,2567,13.876689876024535,67
3.45,2376.21,0,0.0,0,2615,13.994352160865336,66
3.46,2558.14,0,0.0,0,2666,14.094210546572201,63
3.47,2746.58,0,0.0,0,2722,14.185388239544842,60
3.479,2899.86,0,0.0,0,2775,14.267706278438574,57
3.486,3062.1,0,0.0,0,2793,14.350282183948439,56
3.497,3202.38,0,0.0,0,2823,14.414615304391743,54
3.507,3334.04,0,0.0,0,2856,14.537445661024478,52
3.52,3550.7799999999997,0,0.0,0,2904,14.6345219075835,50
3.53,3753.98,0,0.0,0,2948,14.742663143831148,48
3.538,3937.85,0,0.0,0,2976,14.81706507714686,48
3.547,4091.48,0,0.0,0,3010,14.896786030509045,48
3.556,4239.31,0,0.0,0,3041,15.003711186229964,44
3.563,4450.42,0,0.0,0,3063,15.063660973302383,47
3.574,4580.68,0,0.0,0,3089,15.131382293608787,44
3.579,4702.67,0,0.0,0,3122,15.232654491156852,45
3.592,4902.01,0,0.0,0,3143,15.313133564267144,44
3.599,5059.16,0,0.0,0,3180,15.42272058957207,43
3.603,5297.87,0,0.0,0,3215,15.460996613250352,41
3.607,5369.58,0,0.0,0,3223,15.508796790622625,43
3.613,5456.6,0,0.0,0,3237,15.546921819998303,42
3.623,5531.48,0,0.0,0,3246,15.599544317244352,42
3.629,5646.44,0,0.0,0,3259,15.69565924914056,39
3.64,5854.74,0,0.0,0,3282,15.772586018777908,37
3.649,6008.2,0,0.0,0,3317,15.878597407932194,36
3.653,6228.98,0,0.0,0,3331,15.936628739573752,35
3.661,6340.07,0,0.0,0,3343,15.985079441727741,32
3.67,6429.02,0,0.0,0,3355,16.082104085688435,33
3.68,6644.53,0,0.0,0,3374,16.169854411068798,29
3.69,6824.53,0,0.0,0,3401,16.26741870801207,28
3.698,7022.1,0,0.0,0,3406,16.355571936322377,26
3.702,7217.22,0,0.0,0,3429,16.4244801350499,23
3.709,7352.05,0,0.0,0,3434,16.453820712177283,24
3.715,7420.07,0,0.0,0,3436,16.53255540085115,23
3.724,7589.7,0,0.0,0,3449,16.59198996576451,23
3.732,7719.96,0,0.0,0,3456,16.680745553606357,19
3.743,7896.44,0,0.0,0,3474,16.78988672597932,18
3.751,8124.08,0,0.0,0,3472,16.86964604744,18
3.759,8291.42,0,0.0,0,3498,16.949446795758742,16
3.769,8467.73,0,0.0,0,3508,17.0292354408206,16
3.78,8651.95,0,0.0,0,3498,17.169747006856724,14
3.784,8912.1,0,0.0,0,3516,17.240237286667497,13
3.788,9062.92,0,0.0,0,3524,17.270280526657285,11
3.792,9133.41,0,0.0,0,3524,17.320663351879755,14
3.796,9230.09,0,0.0,0,3532,17.361169391127813,12
3.804,9319.74,0,0.0,0,3537,17.401606976877975,12
3.816,9402.18,0,0.0,0,3537,17.492707311715666,12
3.824,9606.44,0,0.0,0,3540,17.614675425589365,10
3.833,9841.81,0,0.0,0,3548,17.696190483392698,10
3.841,10031.48,0,0.0,0,3553,17.788267374154444,10
3.845,10228.35,0,0.0,0,3561,17.85977291553813,9
3.852,10356.15,0,0.0,0,3570,17.900879678464435,7
3.858,10452.12,0,0.0,0,3553,17.98305108560878,8
3.867,10619.29,0,0.0,0,3559,18,9
3.875,10738.47,0,0.0,0,3570,18,7
3.882,10972.79,0,0.0,0,3567,18,8
3.893,11151.38,0,0.0,0,3575,18,6
3.9,11295.87,0,0.0,0,3575,18,7
3.907,11507.51,0,0.0,0,3580,18,7
3.918,11643.22,0,0.0,0,3580,18,6
3.926,11794.74,0,0.0,0,3575,18,4
3.935,12016.23,0,0.0,0,3580,18,6
3.939,12229.98,0,0.0,0,3583,18,5
3.947,12379.92,0,0.0,0,3583,18,6
3.958,12465.17,0,0.0,0,3591,18,6
3.966,12669.78,0,0.0,0,3589,18,5
3.973,12870.0,0,0.0,0,3594,18,3
3.982,13079.0,0,0.0,0,3591,18,4
3.99,13244.94,0,0.0,0,3600,18,3
3.999,13402.44,0,0.0,0,3600,18,2
4.01,13571.54,0,0.0,0,3594,18,2
4.021,13885.13,0,0.0,0,3614,18,4
4.025,14076.21,0,0.0,0,3594,18,5
4.03,14241.79,0,0.0,0,3602,18,4
4.034,14319.49,0,0.0,0,3597,18,3
4.042,14406.15,0,0.0,0,3605,18,3
4.05,14509.33,0,0.0,0,3600,18,2
4.064,14697.42,0,0.0,0,3616,18,4
4.075,14899.39,0,0.0,0,3605,18,4
4.084,15226.17,0,0.0,0,3600,18,3
4.092,15407.57,0,0.0,0,3611,18,2
4.102,15593.02,0,0.0,0,3614,18,3
4.113,15789.55,0,0.0,0,3605,18,4
4.12,16042.5,0,0.0,0,3597,18,3
4.124,16240.6,0,0.0,0,3600,18,4
4.128,16367.87,0,0.0,0,3611,18,3
4.132,16444.33,0,0.0,0,3611,18,2
4.142,16532.4,0,0.0,0,3616,18,4
4.15,16642.61,0,0.0,0,3611,18,2
4.158,16851.62,0,0.0,0,3611,18,2
4.166,17052.71,0,0.0,0,3600,18,4
4.175,17235.52,0,0.0,0,3614,18,3
4.182,17399.7,0,0.0,0,3605,18,2
4.192,17597.81,0,0.0,0,3619,18,4
4.203,17740.72,0,0.0,0,3605,18,2
4.21,17979.08,0,0.0,0,3614,18,3
4.217,18158.02,0,0.0,0,3605,18,2
4.226,18312.01,0,0.0,0,3614,18,4
4.237,18512.05,0,0.0,0,3611,18,3
4.248,18688.35,0,0.0,0,3611,18,3
4.255,18965.56,0,0.0,0,3619,18,1
4.259,19177.55,0,0.0,0,3614,18,2
4.266,19296.03,0,0.0,0,3614,18,3
4.275,19378.12,0,0.0,0,3602,18,1
4.283,19564.98,0,0.0,0,3614,18,3
4.293,19748.14,0,0.0,0,3622,18,4
4.3,19961.01,0,0.0,0,3611,18,2
4.304,20152.08,0,0.0,0,3611,18,4
4.308,20270.56,0,0.0,0,3611,18,3
4.319,20346.85,0,0.0,0,3602,18,3
4.326,20492.4,0,0.0,0,3622,18,3
4.335,20712.65,0,0.0,0,3614,18,2
4.349,20841.5,0,0.0,0,3625,18,3
4.353,21167.92,0,0.0,0,3608,18,1
4.361,21330.35,0,0.0,0,3602,18,1
4.367,21427.55,0,0.0,0,3616,17.9,3
4.376,21605.27,0,0.0,0,3616,17.799999999999997,3
4.388,21720.23,0,0.0,0,3608,17.699999999999996,3
4.398,22002.36,0,0.0,0,3611,17.599999999999994,2
4.402,22238.43,0,0.0,0,3614,17.499999999999993,1
4.412,22398.57,0,0.0,0,3611,17.39999999999999,0
4.422,22529.88,0,0.0,0,3619,17.29999999999999,3
4.432,22732.73,0,0.0,0,3616,17.19999999999999,2
4.444,22941.56,0,0.0,0,3614,17.099999999999987,2
4.447,23273.26,0,0.0,0,3614,16.999999999999986,2
4.456,23376.09,0,0.0,0,3616,16.899999999999984,3
4.467,23463.28,0,0.0,0,3616,16.799999999999983,2
4.478,23670.7,0,0.0,0,3611,16.69999999999998,1
4.485,23929.27,0,0.0,0,3614,16.59999999999998,4
4.493,24173.43,0,0.0,0,3611,16.49999999999998,3
4.496,24300.17,0,0.0,0,3625,16.399999999999977,3
4.503,24444.31,0,0.0,0,3614,16.299999999999976,2
4.514,24514.27,0,0.0,0,3616,16.199999999999974,4
4.522,24729.43,0,0.0,0,3611,16.099999999999973,0
4.533,24945.29,0,0.0,0,3616,15.999999999999973,2
4.537,25165.54,0,0.0,0,3628,15.899999999999974,4
4.541,25321.64,0,0.0,0,3616,15.799999999999974,1
4.548,25421.66,0,0.0,0,3611,15.699999999999974,3
4.557,25492.67,0,0.0,0,3616,15.599999999999975,1
4.568,25663.35,0,0.0,0,3614,15.499999999999975,1
4.576,25866.73,0,0.0,0,3608,15.399999999999975,3
4.582,26117.4,0,0.0,0,3619,15.299999999999976,3
4.586,26303.73,0,0.0,0,3622,15.199999999999976,2
4.591,26381.25,0,0.0,0,3608,15.099999999999977,0
4.597,26469.84,0,0.0,0,3616,14.999999999999977,0
4.605,26561.95,0,0.0,0,3605,14.899999999999977,5
4.615,26718.92,0,0.0,0,3605,14.799999999999978,8
4.624,26917.2,0,0.0,0,3602,14.699999999999978,8
4.632,27159.78,0,0.0,0,3589,14.599999999999978,8
4.642,27331.69,0,0.0,0,3583,14.499999999999979,10
4.65,27464.58,0,0.0,0,3570,14.399999999999979,12
4.658,27695.74,0,0.0,0,3564,14.29999999999998,13
4.668,27878.2,0,0.0,0,3545,14.19999999999998,13
4.677,28016.01,0,0.0,0,3535,14.09999999999998,14
4.684,28303.59,0,0.0,0,3529,13.99999999999998,14
4.692,28418.02,0,0.0,0,3521,13.89999999999998,14
4.704,28582.2,0,0.0,0,3505,13.799999999999981,13
4.713,28792.79,0,0.0,0,3508,13.699999999999982,14
4.719,29011.11,0,0.0,0,3477,13.599999999999982,14
4.726,29174.41,0,0.0,0,3477,13.499999999999982,15
4.729,29335.78,0,0.0,0,3459,13.399999999999983,15
4.734,29434.39,0,0.0,0,3469,13.299999999999983,16
4.744,29509.62,0,0.0,0,3444,13.199999999999983,16
4.754,29623.71,0,0.0,0,3436,13.099999999999984,16
4.766,29832.53,0,0.0,0,3436,12.999999999999984,15
4.775,30053.49,0,0.0,0,3411,12.899999999999984,16
4.779,30332.46,0,0.0,0,3391,12.799999999999985,16
4.787,30440.21,0,0.0,0,3379,12.699999999999985,17
4.798,30519.31,0,0.0,0,3384,12.599999999999985,18
4.806,30717.59,0,0.0,0,3369,12.499999999999986,16
4.818,30942.42,0,0.0,0,3348,12.399999999999986,16
4.824,31175.15,0,0.0,0,3333,12.299999999999986,17
4.828,31301.36,0,0.0,0,3322,12.199999999999987,17
4.835,31425.11,0,0.0,0,3312,12.099999999999987,18
4.847,31505.97,0,0.0,0,3305,11.999999999999988,18
4.853,31692.83,0,0.0,0,3298,11.899999999999988,17
4.863,31894.98,0,0.0,0,3275,11.799999999999988,18
4.869,32059.86,0,0.0,0,3282,11.699999999999989,18
4.873,32216.13,0,0.0,0,3250,11.599999999999989,18
4.879,32308.06,0,0.0,0,3237,11.49999999999999,20
4.888,32389.27,0,0.0,0,3232,11.39999999999999,20
4.895,32543.96,0,0.0,0,3217,11.29999999999999,18
4.905,32700.58,0,0.0,0,3212,11.19999999999999,19
4.916,32848.41,0,0.0,0,3186,11.09999999999999,20
4.925,33069.02,0,0.0,0,3173,10.999999999999991,19
4.931,33245.5,0,0.0,0,3158,10.899999999999991,20
4.941,33416.01,0,0.0,0,3133,10.799999999999992,21
4.952,33559.27,0,0.0,0,3118,10.699999999999992,24
4.959,33739.27,0,0.0,0,3112,10.599999999999993,25
4.963,33893.08,0,0.0,0,3092,10.499999999999993,24
4.967,34021.23,0,0.0,0,3079,10.399999999999993,25
4.971,34104.19,0,0.0,0,3067,10.299999999999994,29
4.978,34166.42,0,0.0,0,3059,10.199999999999994,29
4.989,34248.86,0,0.0,0,3047,10.099999999999994,33
4.997,34412.87,0,0.0,0,3028,9.999999999999995,31
5.006,34599.9,0,0.0,0,2995,9.899999999999995,31
5.014,34774.62,0,0.0,0,2974,9.799999999999995,31
5.023,34920.35,0,0.0,0,2948,9.699999999999996,32
5.032,35044.45,0,0.0,0,2924,9.599999999999996,34
5.042,35207.57,0,0.0,0,2913,9.499999999999996,35
5.049,35393.2,0,0.0,0,2882,9.399999999999997,33
5.053,35548.94,0,0.0,0,2858,9.299999999999997,36
5.057,35626.81,0,0.0,0,2839,9.199999999999998,35
5.061,35687.98,0,0.0,0,2832,9.099999999999998,37
5.065,35759.88,0,0.0,0,2817,8.999999999999998,39
5.071,35835.11,0,0.0,0,2805,8.899999999999999,40
5.081,35893.47,0,0.0,0,2793,8.799999999999999,43
5.092,36024.6,0,0.0,0,2758,8.7,42
5.1,36183.51,0,0.0,0,2741,8.6,41
5.109,36375.29,0,0.0,0,2701,8.5,40
5.12,36509.76,0,0.0,0,2672,8.4,40
5.128,36651.79,0,0.0,0,2643,8.3,41
5.135,36821.95,0,0.0,0,2609,8.200000000000001,40
5.145,36920.39,0,0.0,0,2585,8.100000000000001,40
5.154,37084.39,0,0.0,0,2560,8.000000000000002,39
5.164,37211.3,0,0.0,0,2532,7.900000000000002,39
5.173,37351.23,0,0.0,0,2501,7.8000000000000025,40
5.187,37474.27,0,0.0,0,2474,7.700000000000003,40
5.196,37689.25,0,0.0,0,2427,7.600000000000003,40
5.2,37835.33,0,0.0,0,2402,7.5000000000000036,37
5.204,37927.96,0,0.0,0,2380,7.400000000000004,40
5.209,37991.42,0,0.0,0,2368,7.300000000000004,39
5.215,38047.14,0,0.0,0,2359,7.200000000000005,43
5.224,38108.14,0,0.0,0,2349,7.100000000000005,44
5.229,38219.41,0,0.0,0,2321,7.000000000000005,43
5.241,38326.46,0,0.0,0,2296,6.900000000000006,43
5.252,38452.14,0,0.0,0,2260,6.800000000000006,43
5.259,38610.17,0,0.0,0,2225,6.700000000000006,42
5.267,38714.58,0,0.0,0,2191,6.600000000000007,41
5.283,38810.74,0,0.0,0,2175,6.500000000000007,42
5.29,38996.71,0,0.0,0,2120,6.4000000000000075,40
5.294,39121.52,0,0.0,0,2093,6.300000000000008,40
5.3,39189.37,0,0.0,0,2080,6.200000000000008,42
5.304,39238.59,0,0.0,0,2074,6.1000000000000085,41
5.315,39292.03,0,0.0,0,2050,6.000000000000009,43
5.321,39394.51,0,0.0,0,2025,5.900000000000009,43
5.332,39491.71,0,0.0,0,1998,5.80000000000001,43
5.341,39574.68,0,0.0,0,1974,5.70000000000001,43
5.35,39707.92,0,0.0,0,1936,5.60000000000001,44
5.359,39801.62,0,0.0,0,1915,5.500000000000011,42
5.366,39899.7,0,0.0,0,1884,5.400000000000011,41
5.378,39997.61,0,0.0,0,1854,5.300000000000011,42
5.389,40123.65,0,0.0,0,1813,5.200000000000012,41
5.398,40199.94,0,0.0,0,1795,5.100000000000012,41
5.413,40328.43,0,0.0,0,1760,5.000000000000012,42
5.423,40427.05,0,0.0,0,1726,4.900000000000013,40
5.426,40587.71,0,0.0,0,1678,4.800000000000013,39
5.431,40659.43,0,0.0,0,1660,4.7000000000000135,38
5.44,40694.58,0,0.0,0,1643,4.600000000000014,39
5.449,40771.05,0,0.0,0,1618,4.500000000000014,40
5.457,40845.58,0,0.0,0,1596,4.400000000000015,40
5.468,40929.25,0,0.0,0,1567,4.300000000000015,40
5.476,41041.58,0,0.0,0,1534,4.200000000000015,39
5.483,41095.19,0,0.0,0,1515,4.100000000000016,39
5.493,41163.92,0,0.0,0,1492,4.000000000000016,39
5.504,41252.16,0,0.0,0,1463,3.900000000000016,39
5.516,41323.0,0,0.0,0,1437,3.800000000000016,39
5.521,41458.53,0,0.0,0,1390,3.7000000000000157,37
5.53,41509.51,0,0.0,0,1369,3.6000000000000156,38
5.541,41550.64,0,0.0,0,1356,3.5000000000000155,38
5.554,41636.77,0,0.0,0,1323,3.4000000000000155,38
5.563,41723.78,0,0.0,0,1297,3.3000000000000154,38
5.57,41831.54,0,0.0,0,1248,3.2000000000000153,37
5.578,41888.32,0,0.0,0,1225,3.100000000000015,38
5.59,41929.1,0,0.0,0,1211,3.000000000000015,40
5.599,41992.73,0,0.0,0,1188,2.900000000000015,37
5.611,42076.75,0,0.0,0,1152,2.800000000000015,36
5.615,42167.46,0,0.0,0,1115,2.700000000000015,37
5.619,42211.4,0,0.0,0,1094,2.6000000000000147,36
5.627,42234.96,0,0.0,0,1085,2.5000000000000147,36
5.637,42265.01,0,0.0,0,1072,2.4000000000000146,37
5.644,42323.37,0,0.0,0,1044,2.3000000000000145,37
5.652,42384.37,0,0.0,0,1021,2.2000000000000144,37
5.661,42442.91,0,0.0,0,993,2.1000000000000143,36
5.668,42486.15,0,0.0,0,973,2.000000000000014,36
5.677,42527.28,0,0.0,0,953,1.9000000000000141,36
5.685,42578.96,0,0.0,0,925,1.800000000000014,36
5.694,42619.04,0,0.0,0,907,1.700000000000014,35
5.706,42660.7,0,0.0,0,885,1.6000000000000139,36
5.713,42727.32,0,0.0,0,851,1.5000000000000138,37
5.719,42759.31,0,0.0,0,832,1.4000000000000137,35
5.73,42797.63,0,0.0,0,813,1.3000000000000136,34
5.74,42848.08,0,0.0,0,785,1.2000000000000135,36
5.751,42886.4,0,0.0,0,764,1.1000000000000134,33
5.758,42926.48,0,0.0,0,738,1.0000000000000133,34
5.765,42972.18,0,0.0,0,712,0.9000000000000133,32
5.775,42999.25,0,0.0,0,695,0.8000000000000134,33
5.785,43030.19,0,0.0,0,677,0.7000000000000134,34
5.795,43069.57,0,0.0,0,651,0.6000000000000134,34
5.803,43117.55,0,0.0,0,615,0.5000000000000134,32
5.807,43151.3,0,0.0,0,595,0.40000000000001346,32
5.813,43173.28,0,0.0,0,580,0.3000000000000135,33
5.823,43187.51,0,0.0,0,568,0.20000000000001347,36
5.834,43210.37,0,0.0,0,548,0.10000000000001347,34
5.844,43242.89,0,0.0,0,523,1.3461454173580023e-14,33
5.848,43279.62,0,0.0,0,479,0,46
5.856,43298.61,0,0.0,0,450,0,55
5.865,43311.79,0,0.0,0,429,0,53
5.874,43334.64,0,0.0,0,394,0,48
5.887,43354.86,0,0.0,0,364,0,44
5.893,43382.46,0,0.0,0,323,0,39
5.901,43399.33,0,0.0,0,294,0,36
5.911,43406.71,0,0.0,0,284,0,37
5.921,43422.89,0,0.0,0,259,0,31
5.928,43435.72,0,0.0,0,237,0,29
5.939,43448.9,0,0.0,0,218,0,27
5.947,43460.85,0,0.0,0,197,0,24
5.953,43471.23,0,0.0,0,181,0,22
5.964,43477.03,0,0.0,0,170,0,21
5.972,43486.17,0,0.0,0,157,0,19
5.981,43494.43,0,0.0,0,142,0,17
5.987,43502.16,0,0.0,0,131,0,16
5.991,43508.49,0,0.0,0,119,0,16
6.0,43511.3,0,0.0,0,115,0,14
6.009,43514.12,0,0.0,0,109,0,13
6.019,43520.09,0,0.0,0,99,0,12
6.028,43525.19,0,0.0,0,90,0,11
6.037,43532.22,0,0.0,0,78,0,9
6.044,43535.03,0,0.0,0,73,0,9
6.051,43537.85,0,0.0,0,68,0,8
6.064,43540.83,0,0.0,0,63,0,8
6.075,43544.0,0,0.0,0,57,0,7
6.082,43548.92,0,0.0,0,48,0,7
6.086,43550.68,0,0.0,0,45,0,5
6.094,43552.26,0,0.0,0,41,0,5
6.104,43552.96,0,0.0,0,40,0,5
6.114,43555.07,0,0.0,0,35,0,4
6.124,43557.18,0,0.0,0,31,0,4
6.131,43559.47,0,0.0,0,26,0,3
6.139,43560.35,0,0.0,0,24,0,3
6.15,43561.05,0,0.0,0,23,0,3
6.162,43562.28,0,0.0,0,19,0,2
6.168,43563.33,0,0.0,0,17,0,2
6.18,43564.21,0,0.0,0,13,0,1
6.187,43564.74,0,0.0,0,10,0,1
6.194,43565.27,0,0.0,0,10,0,1
6.202,43565.62,0,0.0,0,8,0,1
6.212,43565.8,0,0.0,0,8,0,1
6.223,43565.97,0,0.0,0,7,0,0
6.232,43566.32,0,0.0,0,4,0,0
6.24,43566.32,0,0.0,0,4,0,0
6.247,43566.32,0,0.0,0,4,0,0
6.258,43566.32,0,0.0,0,4,0,0
6.266,43566.32,0,0.0,0,3,0,0
6.274,43566.32,0,0.0,0,2,0,0
6.279,43566.32,0,0.0,0,2,0,0
6.291,43566.32,0,0.0,0,1,0,0
6.299,43566.32,0,0.0,0,1,0,0
6.309,43566.32,0,0.0,0,1,0,0
6.319,43566.32,0,0.0,0,1,0,0
6.327,43566.32,0,0.0,0,1,0,0
6.337,43566.32,0,0.0,0,1,0,0
6.346,43566.32,0,0.0,0,1,0,0
6.357,43566.32,0,0.0,0,0,0,0
6.364,43566.32,0,0.0,0,0,0,0
6.368,43566.32,0,0.0,0,0,0,0
6.379,43566.32,0,0.0,0,0,0,0
6.39,43566.32,0,0.0,0,0,0,0
6.401,43566.32,0,0.0,0,0,0,0
6.413,43566.32,0,0.0,0,0,0,0
6.42,43566.32,0,0.0,0,0,0,0
6.427,43566.32,0,0.0,0,0,0,0
6.435,43566.32,0,0.0,0,0,0,0
6.444,43566.32,0,0.0,0,0,0,0
6.455,43566.32,0,0.0,0,0,0,0
6.463,43566.32,0,0.0,0,0,0,0
6.469,43566.32,0,0.0,0,0,0,0
6.481,43566.32,0,0.0,0,0,0,0
6.491,43566.32,0,0.0,0,0,0,0
6.503,43566.32,0,0.0,0,0,0,0
6.507,43566.32,0,0.0,0,0,0,0
6.516,43566.32,0,0.0,0,0,0,0
6.526,43566.32,0,0.0,0,0,0,0
6.536,43566.32,0,0.0,0,0,0,0
6.547,43566.32,0,0.0,0,0,0,0
6.552,43566.32,0,0.0,0,0,0,0
6.557,43566.32,0,0.0,0,0,0,0
6.563,43566.32,0,0.0,0,0,0,0
6.571,43566.32,0,0.0,0,0,0,0
6.577,43566.32,0,0.0,0,0,0,0
6.586,43566.32,0,0.0,0,0,0,0
6.598,43566.32,0,0.0,0,0,0,0
6.606,43566.32,0,0.0,0,0,0,0
6.616,43566.32,0,0.0,0,0,0,0
6.623,43566.32,0,0.0,0,0,0,0
6.631,43566.32,0,0.0,0,0,0,0
6.644,43566.32,0,0.0,0,0,0,0
6.651,43566.32,0,0.0,0,0,0,0
6.66,43566.32,0,0.0,0,0,0,0
6.67,43566.32,0,0.0,0,0,0,0
6.681,43566.32,0,0.0,0,0,0,0
6.691,43566.32,0,0.0,0,0,0,0
6.7,43566.32,0,0.0,0,0,0,0
6.708,43566.32,0,0.0,0,0,0,0
6.716,43566.32,0,0.0,0,0,0,0
6.728,43566.32,0,0.0,0,0,0,0
6.738,43566.32,0,0.0,0,0,0,0
6.745,43566.32,0,0.0,0,0,0,0
6.753,43566.32,0,0.0,0,0,0,0
6.763,43566.32,0,0.0,0,0,0,0
6.772,43566.32,0,0.0,0,0,0,0
6.787,43566.32,0,0.0,0,0,0,0
6.796,43566.32,0,0.0,0,0,0,0
6.805,43566.32,0,0.0,0,0,0,0
6.815,43566.32,0,0.0,0,0,0,0
6.824,43566.32,0,0.0,0,0,0,0
6.839,43566.32,0,0.0,0,0,0,0
6.843,43566.32,0,0.0,0,0,0,0
6.851,43566.32,0,0.0,0,0,0,0
6.862,43566.32,0,0.0,0,0,0,0
6.869,43566.32,0,0.0,0,0,0,0
6.88,43566.32,0,0.0,0,0,0,0
6.89,43566.32,0,0.0,0,0,0,0
6.899,43566.32,0,0.0,0,0,0,0
6.907,43566.32,0,0.0,0,0,0,0
6.916,43566.32,0,0.0,0,0,0,0
6.924,43566.32,0,0.0,0,0,0,0
6.934,43566.32,0,0.0,0,0,0,0
6.937,43566.32,0,0.0,0,0,0,0
6.941,43566.32,0,0.0,0,0,0,0
6.955,43566.32,0,0.0,0,0,0,0
6.966,43566.32,0,0.0,0,0,0,0
6.977,43566.32,0,0.0,0,0,0,0
6.987,43566.32,0,0.0,0,0,0,0
6.998,43566.32,0,0.0,0,0,0,0
7.008,43566.32,0,0.0,0,0,0,0
7.02,43566.32,0,0.0,0,0,0,0
7.024,43566.32,0,0.0,0,0,0,0
7.028,43566.32,0,0.0,0,0,0,0
7.032,43566.32,0,0.0,0,0,0,0
7.036,43566.32,0,0.0,0,0,0,0
7.047,43566.32,0,0.0,0,0,0,0
7.054,43566.32,0,0.0,0,0,0,0
7.066,43566.32,0,0.0,0,0,0,0
7.073,43566.32,0,0.0,0,0,0,0
7.086,43566.32,0,0.0,0,0,0,0
7.095,43566.32,0,0.0,0,0,0,0
7.106,43566.32,0,0.0,0,0,0,0
7.118,43566.32,0,0.0,0,0,0,0
7.122,43566.32,0,0.0,0,0,0,0
7.126,43566.32,0,0.0,0,0,0,0
7.135,43566.32,0,0.0,0,0,0,0
7.144,43566.32,0,0.0,0,0,0,0
7.157,43566.32,0,0.0,0,0,0,0
7.164,43566.32,0,0.0,0,0,0,0
7.174,43566.32,0,0.0,0,0,0,0
7.18,43566.32,0,0.0,0,0,0,0
7.189,43566.32,0,0.0,0,0,0,0
7.198,43566.32,0,0.0,0,0,0,0
7.204,43566.32,0,0.0,0,0,0,0
7.212,43566.32,0,0.0,0,0,0,0
7.216,43566.32,0,0.0,0,0,0,0
7.22,43566.32,0,0.0,0,0,0,0
7.228,43566.32,0,0.0,0,0,0,0
7.239,43566.32,0,0.0,0,0,0,0
7.246,43566.32,0,0.0,0,0,0,0
7.258,43566.32,0,0.0,0,0,0,0
7.268,43566.32,0,0.0,0,0,0,0
7.275,43566.32,0,0.0,0,0,0,0
7.285,43566.32,0,0.0,0,0,0,0
7.298,43566.32,0,0.0,0,0,0,0
7.302,43566.32,0,0.0,0,0,0,0
7.306,43566.32,0,0.0,0,0,0,0
7.31,43566.32,0,0.0,0,0,0,0
7.314,43566.32,0,0.0,0,0,0,0
7.324,43566.32,0,0.0,0,0,0,0
7.334,43566.32,0,0.0,0,0,0,0
7.343,43566.32,0,0.0,0,0,0,0
7.351,43566.32,0,0.0,0,0,0,0
7.362,43566.32,0,0.0,0,0,0,0
