time,motor_angle,motor_setpoint,pendulum_angle,pendulum_setpoint,rpm,voltage,current,e_speed,e_angle,setSpeed,setAngle
1.859,0.0,0,0.0,0,0,0,0,0.0,0.0,1999.9999999999998,90.0
3.171,0.0,90.0,0.0,0,0,0,0,11902.769088745115,0.0,1999.9999999999998,90.0
3.176,0.0,90.0,0.0,0,0,3.602359576116296,0,-65234.10420141308,93706.17789096647,1999.9999999999998,90.0
3.18,0.0,90.0,0.0,0,0,24,0,-429936.8896401311,51519.52861540328,1999.9999999999998,90.0
3.185,0.7000000000000001,90.0,0.0,0,0,-24,84,-548389.3341423885,26652.829015057687,1999.9999999999998,90.0
3.192,2.81,90.0,0.0,0,122,-24,399,-603559.4414363612,3407.3449236675815,1999.9999999999998,90.0
3.198,3.33,90.0,0.0,0,-42,-24,417,-579627.9198566168,-23696.879616353406,1999.9999999999998,90.0
3.208,0.0,90.0,0.0,0,-153,-24,404,-433578.86221594585,-36331.4070807587,1999.9999999999998,90.0
3.221,-12.12,90.0,0.0,0,-367,-24,379,-101097.94371144906,-36776.27402286366,1999.9999999999998,90.0
3.231,-48.33,90.0,0.0,0,-660,-24,344,172804.46753225147,-14886.3270154819,1999.9999999999998,90.0
3.239,-103.18,90.0,0.0,0,-928,-24,328,245746.35043617061,3871.0117935847456,1999.9999999999998,90.0
3.248,-157.5,90.0,0.0,0,-1109,24,289,202161.2795359758,14593.745801269588,1999.9999999999998,90.0
3.256,-222.01,90.0,0.0,0,-1287,24,269,87319.54723328198,16313.3397374452,1999.9999999999998,90.0
3.266,-284.94,90.0,0.0,0,-912,24,526,-16555.135158676003,10531.147276949478,1999.9999999999998,90.0
3.278,-324.66,90.0,0.0,0,-606,24,490,-93032.6598115319,1040.852141071233,1999.9999999999998,90.0
3.289,-352.96,90.0,0.0,0,-213,-24,440,-93645.23663062887,-4862.716736657691,1999.9999999999998,90.0
3.297,-356.48,90.0,0.0,0,25,-24,409,-52231.01665850266,-7538.142109601446,1999.9999999999998,90.0
3.305,-364.74,90.0,0.0,0,-199,-24,398,-6090.414093853569,-5795.242726586756,1999.9999999999998,90.0
3.317,-384.78,90.0,0.0,0,-457,-24,371,29635.785638085552,-2327.5046537447593,1999.9999999999998,90.0
3.328,-419.40999999999997,90.0,0.0,0,-700,-12.214749901528329,339,43160.96092308574,1762.6338267542076,1999.9999999999998,90.0
3.339,-482.51,90.0,0.0,0,-983,24,320,28935.110170775686,2603.08179446444,1999.9999999999998,90.0
3.347,-534.72,90.0,0.0,0,-1103,24,202,6628.7674515730505,2161.534002363698,1999.9999999999998,90.0
3.354,-588.33,90.0,0.0,0,-751,24,505,-5794.721985159493,1107.854511776305,1999.9999999999998,90.0
3.366,-614.88,90.0,0.0,0,-505,20.817599602109038,477,-16567.422410135492,-437.07868881672164,1999.9999999999998,90.0
3.377,-635.62,90.0,0.0,0,-178,-11.446822732239491,435,-16687.028700418956,-1446.782640989616,1999.9999999999998,90.0
3.382,-637.03,90.0,0.0,0,79,-24,404,-9738.974677015198,-1917.3566332592845,1999.9999999999998,90.0
3.391,-637.9100000000001,90.0,0.0,0,-62,-24,302,-3567.7283512953386,-1693.0651070567649,1999.9999999999998,90.0
3.4,-646.52,90.0,0.0,0,-292,-21.69024389756496,389,1390.6170379122484,-1322.0741609313902,1999.9999999999998,90.0
3.411,-663.5699999999999,90.0,0.0,0,-479,-5.663209078055365,390,7161.151557746244,-593.2252436483681,1999.9999999999998,90.0
3.421,-716.48,90.0,0.0,0,-809,7.213861452866148,325,6650.655240488396,-290.193437556927,1999.9999999999998,90.0
3.427,-751.64,90.0,0.0,0,-845,22.20022770616482,48,3705.244834117915,-191.96900308854444,1999.9999999999998,90.0
3.434,-799.1,90.0,0.0,0,-640,20.87444328271312,267,1845.5567775450113,-278.6423243966124,1999.9999999999998,90.0
3.443,-815.09,90.0,0.0,0,-450,13.225065401959164,467,-2207.0771781290823,-586.1298376982319,1999.9999999999998,90.0
3.452,-834.25,90.0,0.0,0,-137,8.395362670454057,430,-3140.0556378155425,-791.9367067773007,1999.9999999999998,90.0
3.459,-834.4300000000001,90.0,0.0,0,22,-2.12953004815561,348,-3205.2608206987325,-966.7632167092592,1999.9999999999998,90.0
3.465,-827.22,90.0,0.0,0,208,-4.552521688746641,198,-2675.167864518499,-1016.2199284368795,1999.9999999999998,90.0
3.473,-821.42,90.0,0.0,0,204,-4.7218628041913355,74,-1827.5842322462036,-1032.510426903073,1999.9999999999998,90.0
3.485,-815.27,90.0,0.0,0,146,-3.3451849310574415,134,-611.477229664784,-1001.1113287387059,1999.9999999999998,90.0
3.494,-810.87,90.0,0.0,0,70,-1.1439679207657756,130,1231.1724924057005,-868.6684771889171,1999.9999999999998,90.0
3.504,-810.0,90.0,0.0,0,-11,2.0143226814730415,81,1643.2706581816258,-753.9969857341171,1999.9999999999998,90.0
3.511,-812.28,90.0,0.0,0,-42,6.799776007602992,20,1402.2505163193368,-712.7638163036204,1999.9999999999998,90.0
3.517,-813.69,90.0,0.0,0,-37,7.870015518934825,47,904.802757109239,-701.6218190699625,1999.9999999999998,90.0
3.53,-812.28,90.0,0.0,0,46,7.2440741771136565,169,494.41911351369805,-716.5083567764545,1999.9999999999998,90.0
3.538,-808.06,90.0,0.0,0,142,5.952177510386894,189,-180.37097252939498,-761.9941007361092,1999.9999999999998,90.0
3.546,-791.89,90.0,0.0,0,287,4.8863906987584125,156,-415.6617323641404,-809.66532442295,1999.9999999999998,90.0
3.553,-769.39,90.0,0.0,0,385,3.1339271550817625,108,-288.9869259723883,-817.1017012619382,1999.9999999999998,90.0
3.564,-753.22,90.0,0.0,0,419,2.522865304436795,75,32.08318794865447,-804.0458709200695,1999.9999999999998,90.0
3.571,-734.06,90.0,0.0,0,438,2.8518461011251244,24,402.18072756005927,-769.9550550505095,1999.9999999999998,90.0
3.586,-709.98,90.0,0.0,0,440,3.6856812170352358,8,791.4220954685624,-705.6578813008706,1999.9999999999998,90.0
3.596,-675.52,90.0,0.0,0,454,4.646843005253909,14,818.8880762235101,-652.421736173257,1999.9999999999998,90.0
3.607,-641.25,90.0,0.0,0,487,5.657722271353441,34,758.3604922116815,-632.6594850020363,1999.9999999999998,90.0
3.617,-622.61,90.0,0.0,0,508,5.7290527946671705,58,753.1693729605845,-577.4829117176531,1999.9999999999998,90.0
3.626,-578.67,90.0,0.0,0,584,5.571859637029728,78,559.4034353644262,-566.7962707884748,1999.9999999999998,90.0
3.637,-549.49,90.0,0.0,0,626,5.558378041157787,74,539.7571133705,-539.1025476408498,1999.9999999999998,90.0
3.643,-502.90999999999997,90.0,0.0,0,682,5.055158227074882,65,531.5717414649899,-511.5897079436177,1999.9999999999998,90.0
3.647,-458.61,90.0,0.0,0,727,5.004135747975375,57,578.678671275478,-496.3100173710714,1999.9999999999998,90.0
3.655,-440.33,90.0,0.0,0,740,4.982877928465967,42,700.5940569663101,-471.77815395813985,1999.9999999999998,90.0
3.663,-421.69,90.0,0.0,0,751,5.105216977089961,39,933.7632739799064,-414.07711292853753,1999.9999999999998,90.0
3.674,-381.09,90.0,0.0,0,771,5.42183732059456,36,930.7726699843051,-373.5170638457841,1999.9999999999998,90.0
3.686,-342.24,90.0,0.0,0,795,6.027389418610804,37,926.7380019351261,-312.96580599209517,1999.9999999999998,90.0
3.692,-282.65,90.0,0.0,0,829,6.0196226707224385,43,796.4393313323053,-281.5171921070959,1999.9999999999998,90.0
3.701,-236.42,90.0,0.0,0,869,6.00914443635998,53,827.0039592923948,-248.53696065990266,1999.9999999999998,90.0
3.707,-201.62,90.0,0.0,0,893,5.670752283386953,50,942.9842844264925,-196.17697876888005,1999.9999999999998,90.0
3.714,-155.74,90.0,0.0,0,918,5.750130148198495,47,949.0133440127148,-164.64130034060858,1999.9999999999998,90.0
3.721,-117.77,90.0,0.0,0,934,6.051336843117677,36,1021.5186685920164,-120.32016510826378,1999.9999999999998,90.0
3.73,-81.38,90.0,0.0,0,955,6.066994611875758,36,1068.902656285309,-69.95323111336764,1999.9999999999998,90.0
3.738,-32.69,90.0,0.0,0,979,6.255294559779193,41,1031.9174798257407,-8.132272862280605,1999.9999999999998,90.0
3.748,32.87,90.0,0.0,0,1007,6.378353141557491,38,961.3840697367629,18.550924440297653,1999.9999999999998,90.0
3.756,66.97,90.0,0.0,0,1026,6.282300791734286,41,1099.9041862476217,86.44091506745141,1999.9999999999998,90.0
3.765,128.67,90.0,0.0,0,1056,6.099122004213934,41,1030.2693968026274,128.19269940454438,1999.9999999999998,90.0
3.777,180.17,90.0,0.0,0,1075,6.458865662681998,36,1075.827028778358,190.40496983674748,1999.9999999999998,90.0
3.782,249.08,90.0,0.0,0,1094,6.278020637839474,28,1047.2252452979083,253.411972844519,1999.9999999999998,90.0
3.787,320.27,90.0,0.0,0,1123,6.3963360826348605,35,1052.647261709312,277.37475102732594,1999.9999999999998,90.0
3.791,347.69,90.0,0.0,0,1130,6.322055822935816,30,1181.206393013625,314.75069892308574,1999.9999999999998,90.0
3.797,377.4,90.0,0.0,0,1140,6.336137070261069,31,1281.4189712728178,352.2171927931044,1999.9999999999998,90.0
3.807,405.35,90.0,0.0,0,1150,6.670011552825948,28,1400.1402788611338,409.1195839902528,1999.9999999999998,90.0
3.815,446.65999999999997,90.0,0.0,0,1163,6.930268621875216,28,1404.8894998686867,498.6673718538202,1999.9999999999998,90.0
3.827,517.85,90.0,0.0,0,1190,7.2385937850769455,33,1063.3428009262598,551.0094688667805,1999.9999999999998,90.0
3.836,601.52,90.0,0.0,0,1217,7.250927749147763,37,870.7303195697838,595.4453557764718,1999.9999999999998,90.0
3.845,681.15,90.0,0.0,0,1250,6.363913919603322,42,932.0994461808559,634.9376933604635,1999.9999999999998,90.0
3.853,732.12,90.0,0.0,0,1269,5.863689688963445,39,1245.2672084265037,714.752318768809,1999.9999999999998,90.0
3.864,801.03,90.0,0.0,0,1281,6.023068374746793,20,1363.5421603406237,784.3331991653818,1999.9999999999998,90.0
3.873,866.95,90.0,0.0,0,1288,6.8363806888154475,9,1558.3462724020296,915.3670351742209,1999.9999999999998,90.0
3.882,975.23,90.0,0.0,0,1299,7.143546644046104,11,1294.9329354435185,968.7600036500337,1999.9999999999998,90.0
3.891,1045.37,90.0,0.0,0,1316,7.649462649048159,26,1354.8219575981448,1034.4967330184254,1999.9999999999998,90.0
3.898,1108.47,90.0,0.0,0,1327,6.965365061537776,29,1436.0081867959939,1105.66911677852,1999.9999999999998,90.0
3.909,1176.67,90.0,0.0,0,1355,7.120899842150608,41,1463.569070865034,1158.6338994700548,1999.9999999999998,90.0
3.918,1225.37,90.0,0.0,0,1367,7.331744532759653,25,1636.3729877671856,1279.094007455094,1999.9999999999998,90.0
3.93,1322.57,90.0,0.0,0,1390,7.403321524718315,26,1305.844247091311,1339.4253854408078,1999.9999999999998,90.0
3.942,1409.23,90.0,0.0,0,1409,7.852101924488757,28,1212.8113271147026,1419.094275169547,1999.9999999999998,90.0
3.949,1509.96,90.0,0.0,0,1433,6.993702282655796,28,1184.1795265054143,1484.9647370473047,1999.9999999999998,90.0
3.956,1596.44,90.0,0.0,0,1450,6.752091144624966,34,1324.0604745801384,1547.0517706211049,1999.9999999999998,90.0
3.965,1653.92,90.0,0.0,0,1467,6.677732928943664,18,1606.775252648174,1638.3814389969777,1999.9999999999998,90.0
3.975,1724.94,90.0,0.0,0,1469,7.04101073492528,12,1741.7601468552634,1756.4894716146734,1999.9999999999998,90.0
3.979,1825.13,90.0,0.0,0,1477,7.7752351286595225,7,1608.8455130092116,1814.2140120209176,1999.9999999999998,90.0
3.987,1882.44,90.0,0.0,0,1491,8.12579763830177,17,1645.8407521577533,1855.907691521965,1999.9999999999998,90.0
3.994,1918.65,90.0,0.0,0,1493,7.780611698178959,32,1799.830688662809,1949.639355733527,1999.9999999999998,90.0
4.001,1992.65,90.0,0.0,0,1515,7.8766901813078265,35,1649.1673807712277,2018.7186573756062,1999.9999999999998,90.0
4.016,2061.56,90.0,0.0,0,1529,8.27660973466202,28,1484.209126425461,2107.16749923996,1999.9999999999998,90.0
4.025,2169.14,90.0,0.0,0,1549,7.885329601905498,28,1130.545045547143,2181.194610224344,1999.9999999999998,90.0
4.035,2290.25,90.0,0.0,0,1588,7.456924779504129,32,1098.6696062134474,2228.6010434623768,1999.9999999999998,90.0
4.042,2361.97,90.0,0.0,0,1598,6.538441504088043,25,1504.6885633609375,2329.1193682130333,1999.9999999999998,90.0
4.05,2453.2,90.0,0.0,0,1608,6.45565939669441,14,1643.8865654204988,2395.1041680453327,1999.9999999999998,90.0
4.061,2512.26,90.0,0.0,0,1598,7.510110899701745,8,2122.9614108729825,2562.785164998057,1999.9999999999998,90.0
4.073,2624.94,90.0,0.0,0,1596,7.871615060784558,10,1861.2754197837567,2636.1720138436435,1999.9999999999998,90.0
4.08,2701.58,90.0,0.0,0,1600,9.11579635317893,17,1794.0886788119426,2750.086904691863,1999.9999999999998,90.0
4.087,2806.34,90.0,0.0,0,1622,8.43618476913222,23,1582.7759254109187,2801.472133111776,1999.9999999999998,90.0
4.096,2880.17,90.0,0.0,0,1644,8.26169744839818,48,1625.954334939545,2880.169604449581,1999.9999999999998,90.0
4.107,2958.39,90.0,0.0,0,1664,7.712907677610738,30,1648.7287677837303,2987.6891073534675,1999.9999999999998,90.0
4.114,3070.72,90.0,0.0,0,1685,7.825044162923633,26,1494.610110235932,3058.09204673378,1999.9999999999998,90.0
4.119,3160.7200000000003,90.0,0.0,0,1685,7.884190502078352,13,1559.3339054376866,3117.272178396268,1999.9999999999998,90.0
4.123,3219.7799999999997,90.0,0.0,0,1699,7.483936653749503,14,1681.9306929235954,3166.962227989629,1999.9999999999998,90.0
4.129,3260.91,90.0,0.0,0,1699,7.652027581351284,15,1826.7001544473026,3222.055446179844,1999.9999999999998,90.0
4.138,3302.92,90.0,0.0,0,1703,7.9704175593380215,5,2013.7869987458253,3318.15009326856,1999.9999999999998,90.0
4.144,3372.18,90.0,0.0,0,1708,8.346391078815298,9,1921.108890591442,3428.041046023685,1999.9999999999998,90.0
4.156,3471.15,90.0,0.0,0,1715,8.832264954137369,15,1601.4643100641572,3496.4261270792604,1999.9999999999998,90.0
4.167,3562.73,90.0,0.0,0,1732,8.591575280123536,24,1458.2778169569337,3574.6024215541815,1999.9999999999998,90.0
4.176,3669.96,90.0,0.0,0,1752,7.761442345609573,31,1412.7298588279707,3645.734457494616,1999.9999999999998,90.0
4.182,3767.69,90.0,0.0,0,1769,7.389579874142717,26,1561.8889841661774,3727.218837336084,1999.9999999999998,90.0
4.19,3855.58,90.0,0.0,0,1772,7.271289552810371,4,1762.7580744074523,3812.8050312886558,1999.9999999999998,90.0
4.198,3922.38,90.0,0.0,0,1767,7.658663248376507,5,2058.0170691639023,3949.027957541464,1999.9999999999998,90.0
4.204,4035.58,90.0,0.0,0,1764,8.18033030451765,7,1939.9222048521647,4022.2033108257365,1999.9999999999998,90.0
4.208,4103.26,90.0,0.0,0,1761,8.947132655286405,2,1988.1520992371734,4085.12323794443,1999.9999999999998,90.0
4.215,4161.09,90.0,0.0,0,1765,8.640434396550363,14,2038.309192561772,4137.810765510415,1999.9999999999998,90.0
4.222,4199.41,90.0,0.0,0,1778,8.765689840240602,31,2148.710670759696,4235.079886620907,1999.9999999999998,90.0
4.231,4272.36,90.0,0.0,0,1785,8.895950315796156,25,1940.9203339306437,4328.367692805783,1999.9999999999998,90.0
4.238,4370.62,90.0,0.0,0,1809,9.182668466687185,25,1691.3365678187079,4382.272541534506,1999.9999999999998,90.0
4.246,4444.27,90.0,0.0,0,1820,8.64302658760073,28,1637.337587609089,4469.498137885017,1999.9999999999998,90.0
4.254,4552.73,90.0,0.0,0,1839,7.994845086047439,31,1517.4711418983031,4536.306440013527,1999.9999999999998,90.0
4.264,4638.86,90.0,0.0,0,1845,7.854607038437725,19,1603.1080136338874,4603.022808802699,1999.9999999999998,90.0
4.271,4716.03,90.0,0.0,0,1855,7.5433078943586676,0,1837.0387762329133,4714.355285603279,1999.9999999999998,90.0
4.279,4812.53,90.0,0.0,0,1853,7.765711125845297,2,1857.7266598067079,4810.858915020032,1999.9999999999998,90.0
4.287,4909.92,90.0,0.0,0,1841,8.373240995768562,9,1871.9315067073655,4880.115702684668,1999.9999999999998,90.0
4.294,4979.88,90.0,0.0,0,1844,8.426968462293,3,2099.13376189604,5027.126762861493,1999.9999999999998,90.0
4.299,5098.53,90.0,0.0,0,1852,8.463859158898938,12,1978.265972604292,5063.84834436141,1999.9999999999998,90.0
4.302,5143.53,90.0,0.0,0,1850,9.053914759143552,12,2080.5519021544173,5126.425795499988,1999.9999999999998,90.0
4.307,5191.87,90.0,0.0,0,1849,8.740015075790687,13,2131.072210766363,5186.236929610551,1999.9999999999998,90.0
4.311,5239.86,90.0,0.0,0,1863,9.005656741658647,26,2146.2238451795615,5237.495015787929,1999.9999999999998,90.0
4.318,5285.56,90.0,0.0,0,1870,9.136860505449679,18,2152.8461070559456,5288.007577077476,1999.9999999999998,90.0
4.324,5330.56,90.0,0.0,0,1875,9.176210056495917,25,2139.7720622353986,5402.664718671158,1999.9999999999998,90.0
4.331,5429.35,90.0,0.0,0,1896,9.19340840121834,26,1866.3812145757895,5447.893285938296,1999.9999999999998,90.0
4.343,5494.74,90.0,0.0,0,1909,9.159454454071968,26,1759.1785201630823,5545.097130912149,1999.9999999999998,90.0
4.356,5609.53,90.0,0.0,0,1921,8.449444773123979,24,1415.533310216498,5622.039423771983,1999.9999999999998,90.0
4.368,5741.19,90.0,0.0,0,1939,8.171034023428733,23,1356.9039509231354,5705.820494512764,1999.9999999999998,90.0
4.374,5866.52,90.0,0.0,0,1944,7.278570256034204,3,1618.0998976714563,5812.201953709838,1999.9999999999998,90.0
4.382,5989.92,90.0,0.0,0,1936,7.126306882763222,3,1955.4926344046758,5933.962784812493,1999.9999999999998,90.0
4.39,6089.06,90.0,0.0,0,1920,7.8046457971901715,23,2142.65293097951,6012.519525848242,1999.9999999999998,90.0
4.397,6148.82,90.0,0.0,0,1913,8.680871579482567,26,2542.628393750744,6158.266735184826,1999.9999999999998,90.0
4.401,6242.69,90.0,0.0,0,1910,9.166936214033466,9,2489.313085489235,6262.796218007918,1999.9999999999998,90.0
4.405,6322.14,90.0,0.0,0,1912,10.205692460412315,13,2432.9523210647335,6316.446702951847,1999.9999999999998,90.0
4.412,6369.43,90.0,0.0,0,1919,10.067229942985511,25,2444.2647158151167,6376.304710787985,1999.9999999999998,90.0
4.42,6417.59,90.0,0.0,0,1931,9.920858223853022,44,2400.9793300991073,6489.877919438252,1999.9999999999998,90.0
4.426,6507.77,90.0,0.0,0,1953,9.950237077813334,39,1971.0372357883114,6573.360184150001,1999.9999999999998,90.0
4.435,6605.33,90.0,0.0,0,1968,9.837822770000809,35,1634.0980979217359,6631.126807467417,1999.9999999999998,90.0
4.446,6701.66,90.0,0.0,0,1992,8.721241685370675,34,1500.9908574764775,6702.977502193293,1999.9999999999998,90.0
4.457,6818.9,90.0,0.0,0,2018,7.846193921981772,31,1517.5874896332416,6791.936937632262,1999.9999999999998,90.0
4.464,6930.17,90.0,0.0,0,2014,7.500507772904561,3,1718.4617956058407,6902.2333398081155,1999.9999999999998,90.0
4.472,7052.51,90.0,0.0,0,2004,7.543610055235192,20,1837.8368098794833,6975.724577731986,1999.9999999999998,90.0
4.483,7131.62,90.0,0.0,0,1983,8.06529065689099,24,2455.2438687553777,7173.361454313551,1999.9999999999998,90.0
4.487,7269.78,90.0,0.0,0,1970,8.375313528992105,21,2257.9186151404097,7255.863355731527,1999.9999999999998,90.0
4.491,7347.65,90.0,0.0,0,1952,9.978750486155004,9,2284.4290507466053,7299.449558637076,1999.9999999999998,90.0
4.495,7391.6,90.0,0.0,0,1962,9.466286950665395,1,2408.552053182389,7367.724381022291,1999.9999999999998,90.0
4.499,7439.06,90.0,0.0,0,1972,9.535135875520343,36,2482.6101978337974,7448.558872095828,1999.9999999999998,90.0
4.503,7487.4,90.0,0.0,0,1977,9.857489509931192,27,2453.5844513917787,7505.462347863907,1999.9999999999998,90.0
4.509,7535.56,90.0,0.0,0,1988,10.049822209089484,27,2402.6411781642923,7559.24811787071,1999.9999999999998,90.0
4.517,7584.96,90.0,0.0,0,2000,9.97444089641206,31,2289.1078937837524,7648.451804262961,1999.9999999999998,90.0
4.527,7671.79,90.0,0.0,0,2011,9.84213867239713,34,1954.9533422476159,7722.478801676135,1999.9999999999998,90.0
4.537,7769.88,90.0,0.0,0,2033,9.54728706448826,32,1601.0472237119832,7812.081695336697,1999.9999999999998,90.0
4.546,7909.98,90.0,0.0,0,2051,8.67947101082546,28,1372.960105126102,7871.665452614445,1999.9999999999998,90.0
4.558,8017.91,90.0,0.0,0,2061,7.76035915152912,19,1597.3154617127364,7959.399463891714,1999.9999999999998,90.0
4.565,8116.34,90.0,0.0,0,2063,7.168005516863416,4,2081.2755631890695,8123.9392207887395,1999.9999999999998,90.0
4.573,8256.97,90.0,0.0,0,2043,7.750667579301516,23,2040.3367844484428,8231.416002705175,1999.9999999999998,90.0
4.581,8374.04,90.0,0.0,0,2016,9.00753612549584,27,2178.113859119196,8343.780103138948,1999.9999999999998,90.0
4.585,8476.17,90.0,0.0,0,2010,8.901216073157354,19,2297.094789445002,8435.196311539155,1999.9999999999998,90.0
4.589,8536.28,90.0,0.0,0,2005,9.259030014868838,10,2402.385143986733,8501.842196434116,1999.9999999999998,90.0
4.593,8585.5,90.0,0.0,0,2015,9.568029431282005,7,2488.789781783173,8568.928258575268,1999.9999999999998,90.0
4.602,8635.25,90.0,0.0,0,2016,9.841473738854997,17,2527.8656796059113,8633.617359182295,1999.9999999999998,90.0
4.612,8683.59,90.0,0.0,0,2032,10.065870897133902,23,2526.4225178375764,8771.156551422888,1999.9999999999998,90.0
4.621,8801.36,90.0,0.0,0,2045,10.167352954720634,29,1942.7903722098383,8860.973421737139,1999.9999999999998,90.0
