time,motor_angle,motor_setpoint,pendulum_angle,pendulum_setpoint,rpm,voltage,current
1.869,0.0,0,0.0,0,0,0,0
3.168,0.0,0,0.0,0,0,1.8997718806276567,0
3.178,0.0,0,0.0,0,0,3.5338071199169705,0
3.187,0.0,0,0.0,0,0,3.545121268233644,0
3.198,1.23,0,0.0,0,33,3.5564009769776237,80
3.208,5.44,0,0.0,0,97,3.4495335083427894,75
3.212,17.92,0,0.0,0,177,3.2062907020714144,73
3.22,22.67,0,0.0,0,189,2.8444273163846363,61
3.231,27.59,0,0.0,0,209,2.774912135663887,53
3.24,40.95,0,0.0,0,242,2.6767781898536818,39
3.253,58.35,0,0.0,0,265,2.469336972982274,34
3.262,76.28,0,0.0,0,288,2.262119326597844,28
3.272,99.14,0,0.0,0,306,2.0477257003392735,20
3.281,114.6,0,0.0,0,316,1.8099313795665037,14
3.29,131.83,0,0.0,0,321,1.6444496089606322,8
3.297,152.92,0,0.0,0,325,1.4833315483805256,5
3.301,172.08,0,0.0,0,327,1.3079976182714597,3
3.306,179.47,0,0.0,0,325,1.1512073342442766,0
3.312,186.32,0,0.0,0,326,1.09076745919893,1
3.322,194.76,0,0.0,0,323,1.0072348624821648,4
3.331,210.41,0,0.0,0,322,0.9160081536344382,4
3.343,228.69,0,0.0,0,316,0.7623357472877639,5
3.346,253.82,0,0.0,0,309,0.6075219729325672,6
3.35,265.25,0,0.0,0,305,0.4303690797954314,8
3.359,272.1,0,0.0,0,302,0.3358631290622154,10
3.367,279.84,0,0.0,0,298,0.24969803547308933,11
3.378,295.31,0,0.0,0,289,0.14983921599727656,11
3.385,309.55,0,0.0,0,281,-0.01262817934029492,11
3.392,329.41,0,0.0,0,270,-0.13736288926356988,12
3.396,341.01,0,0.0,0,255,-0.2798689077873586,29
3.4,347.87,0,0.0,0,243,-0.3431774150814464,28
3.407,353.32,0,0.0,0,235,-0.3842069536813839,31
3.413,359.12,0,0.0,0,225,-0.4640207065059596,32
3.425,369.66,0,0.0,0,205,-0.5232422586727323,30
3.433,376.69,0,0.0,0,190,-0.6556666135776243,33
3.441,390.23,0,0.0,0,159,-0.7182984990129109,30
3.445,397.79,0,0.0,0,138,-0.7649219224261383,30
3.453,401.65999999999997,0,0.0,0,128,-0.7853516486237391,30
3.462,405.0,0,0.0,0,116,-0.8678980039981798,31
3.473,410.44,0,0.0,0,96,-0.9403401632934774,28
3.483,415.19,0,0.0,0,74,-1.0322683494514369,28
3.49,419.76,0,0.0,0,48,-1.0827875605269397,27
3.499,421.17,0,0.0,0,36,-1.088080324802211,26
3.509,422.05,0,0.0,0,23,-1.1722976359329724,26
3.518,422.22,0,0.0,0,-12,-1.238692501952466,24
3.527,421.34000000000003,0,0.0,0,-7,-1.224118524896346,24
3.535,419.58,0,0.0,0,-36,-1.319483419049009,23
3.543,417.12,0,0.0,0,-49,-1.2799876351838035,23
3.552,414.84000000000003,0,0.0,0,-59,-1.311119197023556,22
3.562,411.32,0,0.0,0,-74,-1.3430273281977352,20
3.573,406.75,0,0.0,0,-86,-1.388922376617494,19
3.58,400.42,0,0.0,0,-100,-1.4159933203803392,18
3.584,393.22,0,0.0,0,-114,-1.3823539168838666,18
3.591,389.7,0,0.0,0,-120,-1.3119432685529149,18
3.599,387.24,0,0.0,0,-124,-1.3434299008563555,17
3.61,380.91,0,0.0,0,-133,-1.388921116699077,14
3.619,374.06,0,0.0,0,-139,-1.4250000408934258,13
3.627,363.86,0,0.0,0,-150,-1.4293119001150763,14
3.638,356.66,0,0.0,0,-157,-1.399055612372634,14
3.649,348.57,0,0.0,0,-165,-1.419555080602064,12
3.657,336.97,0,0.0,0,-173,-1.4278824351851922,13
3.666,325.37,0,0.0,0,-182,-1.3833278802904037,11
3.674,315.7,0,0.0,0,-188,-1.3404826632655018,11
3.682,305.15,0,0.0,0,-193,-1.3041370643224222,9
3.688,297.42,0,0.0,0,-196,-1.2700603006352484,7
3.696,288.1,0,0.0,0,-199,-1.254278820566256,6
3.705,280.01,0,0.0,0,-201,-1.2254387883117848,5
3.715,267.89,0,0.0,0,-204,-1.23324801619308,5
3.719,256.11,0,0.0,0,-207,-1.1869703094861197,4
3.723,247.5,0,0.0,0,-209,-1.1166673062018502,4
3.733,243.1,0,0.0,0,-210,-1.0769445009885084,4
3.741,235.72,0,0.0,0,-211,-1.1032693040223458,3
3.753,222.36,0,0.0,0,-211,-1.0846592802170976,2
3.76,209.7,0,0.0,0,-213,-1.0544083563165143,2
3.764,195.82,0,0.0,0,-213,-0.9809402323822534,2
3.769,190.01,0,0.0,0,-213,-0.8993540836930685,1
3.773,185.97,0,0.0,0,-213,-0.8743452613140859,0
3.777,180.35,0,0.0,0,-213,-0.8614800809408552,0
3.781,174.9,0,0.0,0,-211,-0.8368008130057499,0
3.789,169.62,0,0.0,0,-211,-0.819608091925023,0
3.801,164.17,0,0.0,0,-210,-0.8169865851070155,1
3.808,152.22,0,0.0,0,-208,-0.8183905406193854,0
3.817,138.51,0,0.0,0,-207,-0.767638283279513,0
3.827,127.79,0,0.0,0,-207,-0.6947833611321921,0
3.836,117.07,0,0.0,0,-205,-0.6420161675465261,1
3.843,105.64,0,0.0,0,-202,-0.5910486677924521,2
3.851,94.39,0,0.0,0,-200,-0.5340113228344032,2
3.858,85.42,0,0.0,0,-197,-0.4708814587961429,3
3.863,76.46,0,0.0,0,-195,-0.4244562701100163,4
3.867,69.43,0,0.0,0,-192,-0.37139626240986945,4
3.871,65.21,0,0.0,0,-191,-0.33468890274906543,5
3.875,60.29,0,0.0,0,-188,-0.31050594477592697,6
3.879,55.72,0,0.0,0,-187,-0.28772786548719254,6
3.891,51.5,0,0.0,0,-185,-0.26090120821103235,6
3.899,43.59,0,0.0,0,-180,-0.23954988382817044,6
3.908,33.22,0,0.0,0,-175,-0.20043730374878965,6
3.921,25.31,0,0.0,0,-171,-0.14096074949927817,6
3.93,14.06,0,0.0,0,-164,-0.0921599254979254,6
3.94,3.33,0,0.0,0,-158,-0.028010267100978092,6
3.95,-6.5,0,0.0,0,-150,0.03890074830252155,9
3.958,-16.69,0,0.0,0,-140,0.09381671249576384,9
3.965,-21.79,0,0.0,0,-132,0.14351859556211566,16
3.969,-27.59,0,0.0,0,-123,0.16689855181160396,13
3.977,-32.69,0,0.0,0,-116,0.18503050003443933,12
3.988,-35.85,0,0.0,0,-110,0.21648630955591264,12
3.998,-41.48,0,0.0,0,-101,0.24065310948241253,11
4.009,-47.81,0,0.0,0,-88,0.27599458713530584,12
4.019,-53.26,0,0.0,0,-78,0.3044166712573253,11
4.029,-57.65,0,0.0,0,-66,0.33864757031328957,11
4.037,-61.52,0,0.0,0,-57,0.35692105890582265,12
4.045,-64.33,0,0.0,0,-48,0.3740392803267895,11
4.056,-66.26,0,0.0,0,-40,0.38723755583318664,10
4.065,-68.2,0,0.0,0,-31,0.40742563450248503,9
4.074,-69.6,0,0.0,0,-23,0.41222175813473494,9
4.083,-70.48,0,0.0,0,-19,0.42325601682693004,9
4.092,-71.01,0,0.0,0,-12,0.4544312452761295,9
4.102,-71.19,0,0.0,0,-8,0.45984141940460754,8
4.11,-71.01,0,0.0,0,5,0.48297953460093385,8
4.118,-70.48,0,0.0,0,3,0.4595001106097369,8
4.127,-69.78,0,0.0,0,13,0.4852183297484596,8
4.136,-69.08,0,0.0,0,17,0.4776777391268371,7
4.145,-67.67,0,0.0,0,22,0.48436920688678675,7
4.149,-66.44,0,0.0,0,26,0.4855669261412448,6
4.154,-65.03,0,0.0,0,28,0.4753153753018113,6
4.157,-64.33,0,0.0,0,29,0.4706757900607886,6
4.165,-63.45,0,0.0,0,32,0.47452601952629175,5
4.17,-62.75,0,0.0,0,33,0.48518085874603867,6
4.18,-60.82,0,0.0,0,36,0.4917752030171264,5
4.189,-59.41,0,0.0,0,38,0.4943657612094799,5
4.198,-57.3,0,0.0,0,41,0.5065531122731025,5
4.209,-54.66,0,0.0,0,44,0.5069635977356781,5
4.216,-51.85,0,0.0,0,47,0.5056827500218231,5
4.227,-49.21,0,0.0,0,50,0.4943818348301375,5
4.236,-46.93,0,0.0,0,52,0.4968453347241167,4
4.243,-42.36,0,0.0,0,56,0.49431097973559457,3
4.248,-40.42,0,0.0,0,57,0.46518265595107944,3
4.254,-37.79,0,0.0,0,58,0.4575194500950941,3
4.264,-36.56,0,0.0,0,59,0.451598474070271,2
4.273,-33.57,0,0.0,0,60,0.46217265212951186,2
4.286,-30.23,0,0.0,0,61,0.4660962826728625,2
4.295,-25.48,0,0.0,0,62,0.4641474193215628,2
4.305,-21.09,0,0.0,0,64,0.4388410151418458,2
4.311,-18.63,0,0.0,0,64,0.41927762937008983,2
4.317,-14.58,0,0.0,0,65,0.4160542908244746,2
4.325,-11.42,0,0.0,0,66,0.39391770260527253,1
4.329,-8.61,0,0.0,0,66,0.3775240308219846,1
4.333,-6.5,0,0.0,0,66,0.36403767694355904,0
4.338,-5.09,0,0.0,0,66,0.3549035845860133,0
4.342,-3.33,0,0.0,0,66,0.3500212984737632,0
4.35,-1.75,0,0.0,0,66,0.342940342880604,0
4.361,0.0,0,0.0,0,66,0.34479681230601567,0
4.37,3.69,0,0.0,0,65,0.34369787793711215,0
4.379,7.2,0,0.0,0,65,0.3360093513163974,0
4.383,12.65,0,0.0,0,65,0.3164287349466506,0
4.387,14.23,0,0.0,0,64,0.2814219914701903,0
4.396,15.64,0,0.0,0,65,0.2771292718077237,0
4.407,17.4,0,0.0,0,64,0.27270917014072177,0
4.414,21.44,0,0.0,0,63,0.27061497417679836,0
4.424,24.96,0,0.0,0,63,0.2520374725919975,0
4.432,29.0,0,0.0,0,62,0.23241660203725556,0
4.441,32.34,0,0.0,0,61,0.21015339215671225,0
4.451,34.62,0,0.0,0,60,0.193474659364825,0
4.461,37.96,0,0.0,0,59,0.183682575675237,1
4.473,41.83,0,0.0,0,56,0.16563564737119219,1
4.485,45.87,0,0.0,0,54,0.1496485362509411,2
4.494,49.21,0,0.0,0,51,0.1276726952336178,2
4.509,52.2,0,0.0,0,48,0.11296541064827159,2
4.514,56.07,0,0.0,0,43,0.099876784691324,3
4.518,58.35,0,0.0,0,41,0.08860701719229402,3
4.522,59.23,0,0.0,0,39,0.07750140974162667,3
4.526,60.29,0,0.0,0,37,0.07699081396829499,3
4.535,61.17,0,0.0,0,37,0.07424899534596963,3
4.547,62.05,0,0.0,0,35,0.06349977632944215,3
4.555,64.16,0,0.0,0,32,0.05847683300607365,2
4.567,66.09,0,0.0,0,29,0.049077390794509124,2
4.571,68.02,0,0.0,0,25,0.040479786082812774,2
4.575,69.08,0,0.0,0,24,0.03741510084747368,2
4.583,69.6,0,0.0,0,23,0.030675357197323172,1
4.59,70.13,0,0.0,0,21,0.024938343487348247,2
4.597,71.19,0,0.0,0,20,0.02249230186935014,1
4.607,71.89,0,0.0,0,18,0.013314804409230052,1
4.62,72.59,0,0.0,0,17,0.00776811331010796,2
4.627,73.47,0,0.0,0,13,-0.0029619673468189722,1
4.634,74.17,0,0.0,0,10,-0.0009429140601754371,1
4.644,74.53,0,0.0,0,10,-0.0012990413892887132,0
4.653,74.7,0,0.0,0,8,-0.012081490144342122,0
4.657,75.05,0,0.0,0,7,-0.013836119449608386,0
4.661,75.23,0,0.0,0,6,-0.015377048583797737,0
4.665,75.41,0,0.0,0,5,-0.017430309472060035,0
4.67,75.41,0,0.0,0,4,-0.018637137036489948,0
4.679,75.41,0,0.0,0,3,-0.018566565982158778,0
4.687,75.41,0,0.0,0,3,-0.02446595070742663,0
4.695,75.41,0,0.0,0,2,-0.03123611005841931,0
4.704,75.41,0,0.0,0,2,-0.035425398633390226,0
4.711,75.41,0,0.0,0,1,-0.04136864048496103,0
4.719,75.41,0,0.0,0,1,-0.04302030827548531,0
4.73,75.41,0,0.0,0,1,-0.05234508818330619,0
4.741,75.41,0,0.0,0,1,-0.059147628053121015,0
4.747,75.41,0,0.0,0,1,-0.06933352738336962,0
4.756,75.41,0,0.0,0,1,-0.07610449624733279,0
4.759,75.41,0,0.0,0,1,-0.08120402320534281,0
4.764,75.41,0,0.0,0,0,-0.08460478719464365,0
4.772,75.41,0,0.0,0,0,-0.08455263256039264,0
4.781,75.41,0,0.0,0,0,-0.09217703047356318,0
4.789,75.41,0,0.0,0,0,-0.1006667977522569,0
4.8,75.41,0,0.0,0,0,-0.1083193262411542,0
4.805,75.41,0,0.0,0,0,-0.11595910490076528,0
4.809,75.41,0,0.0,0,0,-0.11933416685325099,0
4.817,75.41,0,0.0,0,0,-0.12274950207602181,0
4.823,75.41,0,0.0,0,0,-0.1295297803391463,0
4.831,75.41,0,0.0,0,0,-0.13632361794452758,0
4.845,75.41,0,0.0,0,0,-0.1422731335216202,0
4.855,75.41,0,0.0,0,0,-0.15414949831262992,0
4.862,75.41,0,0.0,0,0,-0.16178462227266033,0
4.872,75.41,0,0.0,0,0,-0.1702632587480089,0
4.886,75.41,0,0.0,0,0,-0.18046291979875695,0
4.896,75.41,0,0.0,0,0,-0.18943758534681293,1
4.899,75.41,0,0.0,0,0,-0.19638745657726875,0
4.904,75.41,0,0.0,0,0,-0.1995597355306304,0
4.913,75.41,0,0.0,0,0,-0.20529756346592298,2
4.922,75.23,0,0.0,0,0,-0.21226645825118678,2
4.929,75.23,0,0.0,0,0,-0.2184916913951782,2
4.939,75.05,0,0.0,0,0,-0.22586132977336398,2
4.944,74.7,0,0.0,0,0,-0.2309619976674851,2
4.948,74.53,0,0.0,0,0,-0.2326620702289242,2
4.959,74.35,0,0.0,0,-4,-0.2355813586958892,2
4.968,74.0,0,0.0,0,-4,-0.22827738559657523,2
4.976,73.65,0,0.0,0,-7,-0.23285705098864212,2
4.985,73.12,0,0.0,0,-7,-0.2268445059935118,2
4.994,72.59,0,0.0,0,-8,-0.2315142370952355,2
5.002,72.07,0,0.0,0,-10,-0.22969353303402573,1
5.013,71.54,0,0.0,0,-11,-0.22620045397440008,1
5.024,70.83,0,0.0,0,-11,-0.22714614442703782,1
5.035,69.96,0,0.0,0,-12,-0.2329307689533647,1
5.039,68.73,0,0.0,0,-13,-0.22680860063363908,1
5.043,68.2,0,0.0,0,-13,-0.21727743038811204,1
5.054,67.85,0,0.0,0,-14,-0.21740256711972356,1
5.066,67.32,0,0.0,0,-14,-0.21849172191338123,1
5.076,66.44,0,0.0,0,-15,-0.22345229816798476,1
5.084,65.03,0,0.0,0,-16,-0.2185588009538884,1
5.088,64.16,0,0.0,0,-16,-0.20847387738931625,1
5.094,63.63,0,0.0,0,-16,-0.20444059181586774,1
5.103,63.28,0,0.0,0,-16,-0.20485482763066104,1
5.113,62.4,0,0.0,0,-17,-0.20746517450122393,1
5.123,61.34,0,0.0,0,-17,-0.2011781673913159,1
5.133,60.46,0,0.0,0,-17,-0.19914063408243815,1
5.14,59.06,0,0.0,0,-18,-0.19635941949078003,1
5.146,58.35,0,0.0,0,-18,-0.18651724029077157,1
5.157,57.48,0,0.0,0,-18,-0.18409727809698767,1
5.166,56.6,0,0.0,0,-18,-0.18176557041987332,0
5.175,55.54,0,0.0,0,-17,-0.178445459636362,0
5.184,54.49,0,0.0,0,-16,-0.17704525448920477,0
5.191,53.61,0,0.0,0,-16,-0.17544612864738882,0
5.199,52.91,0,0.0,0,-15,-0.17065423696818988,0
5.209,52.38,0,0.0,0,-14,-0.17069662904610516,0
5.219,51.5,0,0.0,0,-13,-0.17266381840946604,0
5.223,50.62,0,0.0,0,-13,-0.17151416604043873,0
5.231,50.27,0,0.0,0,-12,-0.16575146712920016,0
5.24,50.09,0,0.0,0,-12,-0.16805402718342405,0
5.252,49.39,0,0.0,0,-11,-0.16833851063645963,0
5.265,48.86,0,0.0,0,-10,-0.16842919265203468,0
5.272,48.16,0,0.0,0,-8,-0.1691015946354496,0
5.279,47.81,0,0.0,0,-8,-0.171758318312718,0
5.287,47.46,0,0.0,0,-7,-0.16981780274438843,0
5.3,47.28,0,0.0,0,-7,-0.17145230889216692,0
5.311,46.93,0,0.0,0,-6,-0.1710040399580178,0
5.318,46.4,0,0.0,0,-6,-0.17251911399343348,0
5.322,46.23,0,0.0,0,-5,-0.16895981672676716,0
5.334,46.05,0,0.0,0,-5,-0.1714173207133765,0
5.339,45.87,0,0.0,0,-5,-0.17043599667200304,0
5.348,45.7,0,0.0,0,-4,-0.16930588289550358,0
5.358,45.7,0,0.0,0,-3,-0.1717725695702668,0
5.362,45.52,0,0.0,0,-3,-0.1753842924908351,0
5.366,45.35,0,0.0,0,-3,-0.17416766291403118,0
5.376,45.35,0,0.0,0,-3,-0.17301014423643368,0
5.385,45.17,0,0.0,0,-3,-0.17311768787485216,0
5.391,45.17,0,0.0,0,-3,-0.17187908398727164,0
5.403,45.0,0,0.0,0,-2,-0.17191704751021467,0
5.407,45.0,0,0.0,0,-2,-0.17416846988540977,1
5.411,45.0,0,0.0,0,-1,-0.17416846988540977,0
5.423,45.0,0,0.0,0,-1,-0.17762422180435858,0
5.436,45.0,0,0.0,0,-1,-0.17762422180435858,0
5.448,44.82,0,0.0,0,-1,-0.17762422180435858,0
5.452,44.82,0,0.0,0,-1,-0.17630331838532023,0
5.456,44.82,0,0.0,0,-1,-0.1762887567350357,0
5.464,44.82,0,0.0,0,-1,-0.17626362842489923,0
5.476,44.82,0,0.0,0,-1,-0.1762183191241126,0
5.483,44.82,0,0.0,0,-1,-0.17616314752760426,0
5.491,44.82,0,0.0,0,-1,-0.17612792452949907,0
5.501,44.82,0,0.0,0,-1,-0.17607270861075808,0
5.505,44.82,0,0.0,0,-1,-0.17603743889462384,0
5.51,44.82,0,0.0,0,-1,-0.1760174579529698,0
5.513,44.82,0,0.0,0,-1,-0.1759973536278032,0
5.518,44.82,0,0.0,0,-1,-0.17597729482276744,0
5.524,44.82,0,0.0,0,-1,-0.17595714018587724,0
5.531,44.82,0,0.0,0,-1,-0.17591697945147122,0
5.539,44.82,0,0.0,0,-1,-0.17588182233776598,0
5.551,44.82,0,0.0,0,-1,-0.17584163524959998,0
5.559,44.82,0,0.0,0,0,-0.17577626594587942,0
5.569,44.82,0,0.0,0,0,-0.17919173494480772,0
5.577,44.82,0,0.0,0,0,-0.17915166405276525,0
5.583,44.82,0,0.0,0,0,-0.17910641464688765,0
5.596,44.82,0,0.0,0,0,-0.17906611495629265,0
5.599,44.82,0,0.0,0,0,-0.17901592541831787,0
5.604,44.82,0,0.0,0,0,-0.17900085346340835,0
5.608,44.82,0,0.0,0,0,-0.17897581978722818,0
5.617,44.82,0,0.0,0,0,-0.17896070949957688,0
5.626,44.82,0,0.0,0,0,-0.17891548884325562,0
5.633,44.82,0,0.0,0,0,-0.17886022500858736,0
5.647,44.82,0,0.0,0,0,-0.17881000432525987,0
5.655,44.82,0,0.0,0,0,-0.1787546063259954,0
5.661,44.82,0,0.0,0,0,-0.17870953420904853,0
5.674,44.82,0,0.0,0,0,-0.1786843172544467,0
5.681,44.82,0,0.0,0,0,-0.17862906659665845,0
5.69,44.82,0,0.0,0,0,-0.17857873331090196,0
5.694,44.82,0,0.0,0,0,-0.1785487403362537,0
5.698,44.82,0,0.0,0,0,-0.17852349343419735,0
5.702,44.82,0,0.0,0,0,-0.17850851970693865,1
5.709,44.82,0,0.0,0,0,-0.17848339499049673,0
5.716,44.82,0,0.0,0,0,-0.17844320071494166,0
5.724,44.82,0,0.0,0,0,-0.17841300409760266,0
5.733,44.82,0,0.0,0,0,-0.17837280622835305,0
5.743,44.82,0,0.0,0,0,-0.17831748968616487,0
5.755,44.82,0,0.0,0,0,-0.17827230736258537,0
5.761,44.82,0,0.0,0,0,-0.17822211303301783,0
5.768,44.82,0,0.0,0,0,-0.17818695951300711,0
5.78,44.82,0,0.0,0,0,-0.17814173406509312,0
5.788,44.82,0,0.0,0,0,-0.17809149661119109,0
5.792,44.82,0,0.0,0,0,-0.17805132030410872,0
5.796,44.82,0,0.0,0,0,-0.1780362303807265,0
5.805,44.82,0,0.0,0,0,-0.17801105894625555,0
5.816,44.82,0,0.0,0,0,-0.17796587662267604,0
5.824,44.82,0,0.0,0,0,-0.17791062117329506,0
5.834,44.82,0,0.0,0,0,-0.17787037419022006,0
5.844,44.82,0,0.0,0,0,-0.17781515707358087,0
5.851,44.82,0,0.0,0,0,-0.17776988730343418,0
5.861,44.82,0,0.0,0,0,-0.1777297421417045,0
5.87,44.82,0,0.0,0,0,-0.17767447710913808,0
5.874,44.82,0,0.0,0,0,-0.1776392097888002,0
5.878,44.82,0,0.0,0,0,-0.1776242240825597,0
5.882,44.82,0,0.0,0,0,-0.17759901431534697,0
5.886,44.82,0,0.0,0,0,-0.17757896389559846,0
5.895,44.82,0,0.0,0,0,-0.17755885957043185,0
5.904,44.82,0,0.0,0,0,-0.17751360177926698,0
5.914,44.82,0,0.0,0,0,-0.17745844216174045,0
5.925,44.82,0,0.0,0,0,-0.1774031112447741,0
5.935,44.82,0,0.0,0,0,-0.1773579349106855,0
5.941,44.82,0,0.0,0,0,-0.17731262680779702,1
5.956,44.82,0,0.0,0,0,-0.17727757750492804,0
5.968,44.82,0,0.0,0,0,-0.1771971626000579,0
5.972,44.82,0,0.0,0,0,-0.1771468257206069,0
5.976,44.82,0,0.0,0,0,-0.1771268076441093,0
5.98,44.82,0,0.0,0,0,-0.1771067260790081,0
5.985,44.82,0,0.0,0,0,-0.1770865774316088,0
5.994,44.82,0,0.0,0,0,-0.17705148021281258,0
6.004,44.82,0,0.0,0,0,-0.1770110128164723,0
6.011,44.82,0,0.0,0,0,-0.17696587241932912,1
6.022,44.82,0,0.0,0,0,-0.1769156529338998,0
6.033,44.82,0,0.0,0,0,-0.17687544188777019,0
6.044,44.82,0,0.0,0,0,-0.1768100414386969,0
6.05,44.82,0,0.0,0,0,-0.17676487348989559,0
6.061,44.82,0,0.0,0,0,-0.1767196492398798,0
6.067,44.82,0,0.0,0,0,-0.17667941423578656,0
6.071,44.82,0,0.0,0,0,-0.17665433863317004,0
6.074,44.82,0,0.0,0,0,-0.17663433373355242,0
6.083,44.82,0,0.0,0,0,-0.1766141431597168,0
6.094,44.82,0,0.0,0,0,-0.17656385539409117,0
6.103,44.82,0,0.0,0,0,-0.17651873056962436,0
6.112,44.82,0,0.0,0,0,-0.1764584295731063,0
6.116,44.82,0,0.0,0,0,-0.1764281982167201,0
6.12,44.82,0,0.0,0,0,-0.17640819571289884,0
6.129,44.82,0,0.0,0,0,-0.17638306141327148,0
6.139,44.82,0,0.0,0,0,-0.17633283713624942,0
6.144,44.82,0,0.0,0,0,-0.17628761767782633,0
6.15,44.82,0,0.0,0,0,-0.17626249056558804,0
6.157,44.82,0,0.0,0,0,-0.17623234066627813,0
6.173,44.82,0,0.0,0,0,-0.17618201337001255,0
6.181,44.82,0,0.0,0,0,-0.17611677463719366,0
6.194,44.82,0,0.0,0,0,-0.17607151924182513,0
6.207,44.82,0,0.0,0,0,-0.1760011391300147,0
6.214,44.82,0,0.0,0,0,-0.17595097714369806,0
6.22,44.82,0,0.0,0,0,-0.17591571461495292,0
6.229,44.82,0,0.0,0,0,-0.17587564372291045,0
6.236,44.82,0,0.0,0,0,-0.17583532247014821,0
6.243,44.82,0,0.0,0,0,-0.17580019769969385,0
6.248,44.82,0,0.0,0,0,-0.17576501063853406,0
6.256,44.82,0,0.0,0,0,-0.17572481157138628,0
6.267,44.82,0,0.0,0,0,-0.17568973950845188,0
6.273,44.82,0,0.0,0,0,-0.17564951648334046,0
6.283,44.82,0,0.0,0,0,-0.17560927189606176,0
6.293,44.82,0,0.0,0,0,-0.17555396014546631,0
6.3,44.82,0,0.0,0,0,-0.17550380055494602,0
6.304,44.82,0,0.0,0,0,-0.17547859438142782,0
6.308,44.82,0,0.0,0,0,-0.17545858229442113,0
6.314,44.82,0,0.0,0,0,-0.17544346961097346,0
6.323,44.82,0,0.0,0,0,-0.17540322981528753,0
6.332,44.82,0,0.0,0,0,-0.17535808941814435,0
6.343,44.82,0,0.0,0,0,-0.17530278605283614,0
6.349,44.82,0,0.0,0,0,-0.17525752466797673,0
6.353,44.82,0,0.0,0,0,-0.17523747065453368,0
6.366,44.82,0,0.0,0,0,-0.17519230390363053,0
6.374,44.82,0,0.0,0,0,-0.17514196462838313,1
6.382,44.82,0,0.0,0,0,-0.17509171998709203,0
6.394,44.82,0,0.0,0,0,-0.17505654969650677,0
6.398,44.82,0,0.0,0,0,-0.1750114272678363,0
6.407,44.82,0,0.0,0,0,-0.1749913289321606,0
6.417,44.82,0,0.0,0,0,-0.17493600999417605,0
6.423,44.82,0,0.0,0,0,-0.1748857749360704,0
6.432,44.82,0,0.0,0,0,-0.17486069573975935,0
6.44,44.82,0,0.0,0,0,-0.17480040193063034,0
6.451,44.82,0,0.0,0,0,-0.174775280807883,0
6.46,44.82,0,0.0,0,0,-0.17471499059244855,0
6.47,44.82,0,0.0,0,0,-0.174669675302171,0
6.48,44.82,0,0.0,0,0,-0.17461953487802162,0
6.484,44.82,0,0.0,0,0,-0.1745743046385149,0
6.488,44.82,0,0.0,0,0,-0.17455416078270833,0
6.493,44.82,0,0.0,0,0,-0.17453410077977438,0
6.496,44.82,0,0.0,0,0,-0.17451396650715326,0
6.508,44.82,0,0.0,0,0,-0.17448386452377054,0
6.517,44.82,0,0.0,0,0,-0.17442850605514604,0
6.529,44.82,0,0.0,0,0,-0.17436830448417698,0
6.538,44.82,0,0.0,0,0,-0.17431305861798146,0
6.541,44.82,0,0.0,0,0,-0.1742879183288632,0
6.55,44.82,0,0.0,0,0,-0.17426782358688203,0
6.556,44.82,0,0.0,0,0,-0.1742225082966045,0
6.566,44.82,0,0.0,0,0,-0.174192454229149,0
6.576,44.82,0,0.0,0,0,-0.1741320681818601,0
6.583,44.82,0,0.0,0,0,-0.1740868499213352,1
6.591,44.82,0,0.0,0,0,-0.17406172760068964,0
6.6,44.82,0,0.0,0,0,-0.1740165548602956,0
6.608,44.82,0,0.0,0,0,-0.17396124191180196,0
6.62,44.82,0,0.0,0,0,-0.1739110931023653,0
6.628,44.82,0,0.0,0,0,-0.17385582208030798,0
6.632,44.82,0,0.0,0,0,-0.17383563390226872,0
6.636,44.82,0,0.0,0,0,-0.17381558108672387,1
6.647,44.82,0,0.0,0,0,-0.17378044074359314,0
6.653,44.82,0,0.0,0,0,-0.17373514701548284,0
