time,motor_angle,motor_setpoint,pendulum_angle,pendulum_setpoint,rpm,voltage,current
1.899,0.0,0,0.0,0,0,0,0
1.904,0.0,0,0.0,0,0,0.45396013844372507,0
1.909,0.0,0,0.0,0,0,0.45396013844372507,0
1.913,0.0,0,0.0,0,0,0.45396013844372507,8
1.92,0.17,0,0.0,0,0,0.45396013844372507,8
1.931,0.35000000000000003,0,0.0,0,0,0.45224517792071545,8
1.94,0.87,0,0.0,0,7,0.4504293373669405,7
1.952,1.58,0,0.0,0,13,0.42553814970669823,7
1.959,2.98,0,0.0,0,20,0.40153673089912256,6
1.968,4.39,0,0.0,0,23,0.3677681005315363,5
1.981,5.44,0,0.0,0,25,0.3451245478820123,4
1.989,7.38,0,0.0,0,28,0.3289191657772449,3
1.997,9.14,0,0.0,0,29,0.30092897149716147,3
2.008,10.72,0,0.0,0,31,0.28036759664526667,2
2.017,12.48,0,0.0,0,31,0.2588155729099399,2
2.025,14.06,0,0.0,0,32,0.24106068749525197,1
2.033,16.34,0,0.0,0,32,0.22231515319713208,1
2.04,17.57,0,0.0,0,32,0.19931450618265,1
2.05,19.16,0,0.0,0,32,0.18690626239852154,1
2.059,20.91,0,0.0,0,32,0.17086633750684327,0
2.066,22.67,0,0.0,0,30,0.15321233212292057,1
2.073,24.25,0,0.0,0,29,0.14107042558264649,1
2.081,25.31,0,0.0,0,28,0.12793787015894031,1
2.089,26.54,0,0.0,0,26,0.12005107633502832,2
2.092,27.77,0,0.0,0,24,0.1132558114253136,2
2.097,28.65,0,0.0,0,23,0.10646054651559894,2
2.1,29.0,0,0.0,0,22,0.10038959324546182,2
2.107,29.53,0,0.0,0,21,0.09966528160588412,2
2.114,30.05,0,0.0,0,21,0.09712512941253165,1
2.122,30.93,0,0.0,0,19,0.09187936781273748,1
2.13,31.64,0,0.0,0,18,0.08861490397980726,1
2.139,32.34,0,0.0,0,16,0.08425891123267981,1
2.146,33.39,0,0.0,0,14,0.08281028795352452,1
2.15,33.75,0,0.0,0,13,0.07783086359758479,1
2.16,34.27,0,0.0,0,12,0.07700567192724178,1
2.168,34.62,0,0.0,0,10,0.07456639976465446,1
2.176,34.98,0,0.0,0,10,0.07664857756228377,1
2.184,35.5,0,0.0,0,8,0.07301689645473403,0
2.191,35.85,0,0.0,0,8,0.07338411372935355,1
2.195,36.03,0,0.0,0,6,0.069853312652569,1
2.202,36.21,0,0.0,0,6,0.07365045097320788,0
2.21,36.21,0,0.0,0,6,0.07183461041943295,0
2.219,36.38,0,0.0,0,5,0.07183461041943295,0
2.229,36.38,0,0.0,0,4,0.07292613933363024,0
2.236,36.38,0,0.0,0,3,0.07573262877083714,0
2.24,36.38,0,0.0,0,2,0.07853911820804399,0
2.244,36.38,0,0.0,0,2,0.0813456076452509,0
2.25,36.38,0,0.0,0,2,0.0813456076452509,0
2.258,36.38,0,0.0,0,1,0.0813456076452509,0
2.27,36.38,0,0.0,0,1,0.08415209708245774,0
2.277,36.38,0,0.0,0,1,0.08415209708245774,0
2.285,36.38,0,0.0,0,1,0.08415209708245774,0
2.29,36.38,0,0.0,0,1,0.08415209708245774,0
2.297,36.38,0,0.0,0,1,0.08415209708245774,0
2.305,36.38,0,0.0,0,1,0.08415209708245774,0
2.311,36.38,0,0.0,0,1,0.08415209708245774,0
2.322,36.38,0,0.0,0,0,0.08415209708245774,0
2.33,36.38,0,0.0,0,0,0.08695858651966465,0
2.334,36.38,0,0.0,0,0,0.08695858651966465,0
2.339,36.38,0,0.0,0,0,0.08695858651966465,0
2.346,36.38,0,0.0,0,0,0.08695858651966465,0
2.353,36.38,0,0.0,0,0,0.08695858651966465,0
2.359,36.38,0,0.0,0,0,0.08695858651966465,0
2.368,36.38,0,0.0,0,0,0.08695858651966465,0
2.379,36.38,0,0.0,0,0,0.08695858651966465,0
2.384,36.38,0,0.0,0,0,0.08695858651966465,0
2.388,36.38,0,0.0,0,0,0.08695858651966465,0
2.394,36.38,0,0.0,0,0,0.08695858651966465,0
2.402,36.38,0,0.0,0,0,0.08695858651966465,0
2.413,36.38,0,0.0,0,0,0.08695858651966465,0
2.421,36.38,0,0.0,0,0,0.08695858651966465,0
2.425,36.38,0,0.0,0,0,0.08695858651966465,0
2.429,36.38,0,0.0,0,0,0.08695858651966465,0
2.432,36.38,0,0.0,0,0,0.08695858651966465,0
2.44,36.38,0,0.0,0,0,0.08695858651966465,0
2.447,36.38,0,0.0,0,0,0.08695858651966465,0
2.46,36.38,0,0.0,0,0,0.08695858651966465,0
2.466,36.38,0,0.0,0,0,0.08695858651966465,0
2.474,36.38,0,0.0,0,0,0.08695858651966465,0
2.478,36.38,0,0.0,0,0,0.08695858651966465,0
2.482,36.38,0,0.0,0,0,0.08695858651966465,0
2.493,36.38,0,0.0,0,0,0.08695858651966465,0
2.5,36.38,0,0.0,0,0,0.08695858651966465,0
2.508,36.38,0,0.0,0,0,0.08695858651966465,0
2.518,36.38,0,0.0,0,0,0.08695858651966465,0
2.523,36.38,0,0.0,0,0,0.08695858651966465,0
2.527,36.38,0,0.0,0,0,0.08695858651966465,0
2.535,36.38,0,0.0,0,0,0.08695858651966465,0
2.544,36.38,0,0.0,0,0,0.08695858651966465,0
2.553,36.38,0,0.0,0,0,0.08695858651966465,0
2.561,36.38,0,0.0,0,0,0.08695858651966465,0
2.568,36.38,0,0.0,0,0,0.08695858651966465,0
2.572,36.38,0,0.0,0,0,0.08695858651966465,0
2.576,36.38,0,0.0,0,0,0.08695858651966465,0
2.582,36.38,0,0.0,0,0,0.08695858651966465,0
2.59,36.38,0,0.0,0,0,0.08695858651966465,0
2.6,36.38,0,0.0,0,0,0.08695858651966465,0
2.61,36.38,0,0.0,0,0,0.08695858651966465,0
2.617,36.38,0,0.0,0,0,0.08695858651966465,0
2.621,36.38,0,0.0,0,0,0.08695858651966465,0
2.629,36.38,0,0.0,0,0,0.08695858651966465,0
2.636,36.38,0,0.0,0,0,0.08695858651966465,0
2.642,36.38,0,0.0,0,0,0.08695858651966465,0
2.652,36.38,0,0.0,0,0,0.08695858651966465,0
2.66,36.38,0,0.0,0,0,0.08695858651966465,0
2.669,36.38,0,0.0,0,0,0.08695858651966465,0
2.676,36.38,0,0.0,0,0,0.08695858651966465,0
2.684,36.38,0,0.0,0,0,0.08695858651966465,0
2.692,36.38,0,0.0,0,0,0.08695858651966465,0
2.699,36.38,0,0.0,0,0,0.08695858651966465,0
2.704,36.38,0,0.0,0,0,0.08695858651966465,0
2.707,36.38,0,0.0,0,0,0.08695858651966465,0
2.711,36.38,0,0.0,0,0,0.08695858651966465,0
2.715,36.38,0,0.0,0,0,0.08695858651966465,0
2.723,36.38,0,0.0,0,0,0.08695858651966465,0
2.73,36.38,0,0.0,0,0,0.08695858651966465,0
2.738,36.38,0,0.0,0,0,0.08695858651966465,0
2.746,36.38,0,0.0,0,0,0.08695858651966465,0
2.753,36.38,0,0.0,0,0,0.08695858651966465,0
2.761,36.38,0,0.0,0,0,0.08695858651966465,0
2.771,36.38,0,0.0,0,0,0.08695858651966465,0
2.779,36.38,0,0.0,0,0,0.08695858651966465,0
2.79,36.38,0,0.0,0,0,0.08695858651966465,0
2.797,36.38,0,0.0,0,0,0.08695858651966465,0
2.801,36.38,0,0.0,0,0,0.08695858651966465,0
2.805,36.38,0,0.0,0,0,0.08695858651966465,0
2.81,36.38,0,0.0,0,0,0.08695858651966465,0
2.814,36.38,0,0.0,0,0,0.08695858651966465,0
2.823,36.38,0,0.0,0,0,0.08695858651966465,0
2.831,36.38,0,0.0,0,0,0.08695858651966465,0
2.841,36.38,0,0.0,0,0,0.08695858651966465,0
2.851,36.38,0,0.0,0,0,0.08695858651966465,0
2.862,36.38,0,0.0,0,0,0.08695858651966465,0
2.869,36.38,0,0.0,0,0,0.08695858651966465,0
2.879,36.38,0,0.0,0,0,0.08695858651966465,0
2.889,36.38,0,0.0,0,0,0.08695858651966465,0
2.896,36.38,0,0.0,0,0,0.08695858651966465,0
2.9,36.38,0,0.0,0,0,0.08695858651966465,0
2.904,36.38,0,0.0,0,0,0.08695858651966465,0
2.908,36.38,0,0.0,0,0,0.08695858651966465,0
2.92,36.38,0,0.0,0,0,0.08695858651966465,0
2.926,36.38,0,0.0,0,0,0.08695858651966465,0
2.934,36.38,0,0.0,0,0,0.08695858651966465,0
2.942,36.38,0,0.0,0,0,0.08695858651966465,0
2.949,36.38,0,0.0,0,0,0.08695858651966465,0
2.953,36.38,0,0.0,0,0,0.08695858651966465,0
2.959,36.38,0,0.0,0,0,0.08695858651966465,0
2.967,36.38,0,0.0,0,0,0.08695858651966465,0
2.977,36.38,0,0.0,0,0,0.08695858651966465,0
2.986,36.38,0,0.0,0,0,0.08695858651966465,0
2.994,36.38,0,0.0,0,0,0.08695858651966465,0
2.998,36.38,0,0.0,0,0,0.08695858651966465,0
3.005,36.38,0,0.0,0,0,0.08695858651966465,0
3.012,36.38,0,0.0,0,0,0.08695858651966465,0
3.022,36.38,0,0.0,0,0,0.08695858651966465,0
3.032,36.38,0,0.0,0,0,0.08695858651966465,0
3.039,36.38,0,0.0,0,0,0.08695858651966465,0
3.043,36.38,0,0.0,0,0,0.08695858651966465,0
3.047,36.38,0,0.0,0,0,0.08695858651966465,0
3.054,36.38,0,0.0,0,0,0.08695858651966465,0
3.061,36.38,0,0.0,0,0,0.08695858651966465,0
3.07,36.38,0,0.0,0,0,0.08695858651966465,0
3.078,36.38,0,0.0,0,0,0.08695858651966465,0
3.084,36.38,0,0.0,0,0,0.08695858651966465,0
3.088,36.38,0,0.0,0,0,0.08695858651966465,0
3.092,36.38,0,0.0,0,0,0.08695858651966465,0
3.101,36.38,0,0.0,0,0,0.08695858651966465,0
3.11,36.38,0,0.0,0,0,0.08695858651966465,0
3.118,36.38,0,0.0,0,0,0.08695858651966465,0
3.126,36.38,0,0.0,0,0,0.08695858651966465,0
3.133,36.38,0,0.0,0,0,0.08695858651966465,0
3.137,36.38,0,0.0,0,0,0.08695858651966465,0
3.141,36.38,0,0.0,0,0,0.08695858651966465,0
3.149,36.38,0,0.0,0,0,0.08695858651966465,0
3.155,36.38,0,0.0,0,0,0.08695858651966465,0
3.164,36.38,0,0.0,0,0,0.08695858651966465,0
3.177,36.38,0,0.0,0,0,0.08695858651966465,0
3.185,36.38,0,0.0,0,0,0.08695858651966465,0
3.192,36.38,0,0.0,0,0,0.08695858651966465,0
3.203,36.38,0,0.0,0,0,0.08695858651966465,0
3.212,36.38,0,0.0,0,0,0.08695858651966465,0
3.219,36.38,0,0.0,0,0,0.08695858651966465,0
3.223,36.38,0,0.0,0,0,0.08695858651966465,0
3.227,36.38,0,0.0,0,0,0.08695858651966465,0
3.231,36.38,0,0.0,0,0,0.08695858651966465,0
3.235,36.38,0,0.0,0,0,0.08695858651966465,0
3.24,36.38,0,0.0,0,0,0.08695858651966465,0
3.252,36.38,0,0.0,0,0,0.08695858651966465,0
3.258,36.38,0,0.0,0,0,0.08695858651966465,0
3.266,36.38,0,0.0,0,0,0.08695858651966465,0
3.273,36.38,0,0.0,0,0,0.08695858651966465,0
3.281,36.38,0,0.0,0,0,0.08695858651966465,0
3.285,36.38,0,0.0,0,0,0.08695858651966465,0
3.293,36.38,0,0.0,0,0,0.08695858651966465,0
3.299,36.38,0,0.0,0,0,0.08695858651966465,0
3.307,36.38,0,0.0,0,0,0.08695858651966465,0
3.316,36.38,0,0.0,0,0,0.08695858651966465,0
3.326,36.38,0,0.0,0,0,0.08695858651966465,0
3.334,36.38,0,0.0,0,0,0.08695858651966465,0
3.344,36.38,0,0.0,0,0,0.08695858651966465,0
3.352,36.38,0,0.0,0,0,0.08695858651966465,0
3.361,36.38,0,0.0,0,0,0.08695858651966465,0
3.37,36.38,0,0.0,0,0,0.08695858651966465,0
3.375,36.38,0,0.0,0,0,0.08695858651966465,0
3.379,36.38,0,0.0,0,0,0.08695858651966465,0
3.387,36.38,0,0.0,0,0,0.08695858651966465,0
3.397,36.38,0,0.0,0,0,0.08695858651966465,0
3.405,36.38,0,0.0,0,0,0.08695858651966465,0
3.414,36.38,0,0.0,0,0,0.08695858651966465,0
3.42,36.38,0,0.0,0,0,0.08695858651966465,0
3.424,36.38,0,0.0,0,0,0.08695858651966465,0
3.428,36.38,0,0.0,0,0,0.08695858651966465,0
3.434,36.38,0,0.0,0,0,0.08695858651966465,0
3.443,36.38,0,0.0,0,0,0.08695858651966465,0
3.453,36.38,0,0.0,0,0,0.08695858651966465,0
3.462,36.38,0,0.0,0,0,0.08695858651966465,0
3.469,36.38,0,0.0,0,0,0.08695858651966465,0
3.473,36.38,0,0.0,0,0,0.08695858651966465,0
3.482,36.38,0,0.0,0,0,0.08695858651966465,0
3.493,36.38,0,0.0,0,0,0.08695858651966465,0
3.5,36.38,0,0.0,0,0,0.08695858651966465,0
3.508,36.38,0,0.0,0,0,0.08695858651966465,0
3.514,36.38,0,0.0,0,0,0.08695858651966465,0
3.518,36.38,0,0.0,0,0,0.08695858651966465,0
3.522,36.38,0,0.0,0,0,0.08695858651966465,0
3.53,36.38,0,0.0,0,0,0.08695858651966465,0
3.537,36.38,0,0.0,0,0,0.08695858651966465,0
3.543,36.38,0,0.0,0,0,0.08695858651966465,0
3.548,36.38,0,0.0,0,0,0.08695858651966465,0
3.556,36.38,0,0.0,0,0,0.08695858651966465,0
3.563,36.38,0,0.0,0,0,0.08695858651966465,0
3.567,36.38,0,0.0,0,0,0.08695858651966465,0
3.571,36.38,0,0.0,0,0,0.08695858651966465,0
3.577,36.38,0,0.0,0,0,0.08695858651966465,0
3.585,36.38,0,0.0,0,0,0.08695858651966465,0
3.598,36.38,0,0.0,0,0,0.08695858651966465,0
3.606,36.38,0,0.0,0,0,0.08695858651966465,0
3.612,36.38,0,0.0,0,0,0.08695858651966465,0
3.616,36.38,0,0.0,0,0,0.08695858651966465,0
3.621,36.38,0,0.0,0,0,0.08695858651966465,0
3.633,36.38,0,0.0,0,0,0.08695858651966465,0
3.642,36.38,0,0.0,0,0,0.08695858651966465,0
3.65,36.38,0,0.0,0,0,0.08695858651966465,0
3.657,36.38,0,0.0,0,0,0.08695858651966465,0
3.661,36.38,0,0.0,0,0,0.08695858651966465,0
3.666,36.38,0,0.0,0,0,0.08695858651966465,0
3.675,36.38,0,0.0,0,0,0.08695858651966465,0
3.684,36.38,0,0.0,0,0,0.08695858651966465,0
3.692,36.38,0,0.0,0,0,0.08695858651966465,0
3.702,36.38,0,0.0,0,0,0.08695858651966465,0
3.706,36.38,0,0.0,0,0,0.08695858651966465,0
3.711,36.38,0,0.0,0,0,0.08695858651966465,0
3.715,36.38,0,0.0,0,0,0.08695858651966465,0
3.725,36.38,0,0.0,0,0,0.08695858651966465,0
3.734,36.38,0,0.0,0,0,0.08695858651966465,0
3.745,36.38,0,0.0,0,0,0.08695858651966465,0
3.752,36.38,0,0.0,0,0,0.08695858651966465,0
3.756,36.38,0,0.0,0,0,0.08695858651966465,0
3.76,36.38,0,0.0,0,0,0.08695858651966465,0
3.768,36.38,0,0.0,0,0,0.08695858651966465,0
3.778,36.38,0,0.0,0,0,0.08695858651966465,0
3.785,36.38,0,0.0,0,0,0.08695858651966465,0
3.793,36.38,0,0.0,0,0,0.08695858651966465,0
3.801,36.38,0,0.0,0,0,0.08695858651966465,0
3.805,36.38,0,0.0,0,0,0.08695858651966465,0
3.813,36.38,0,0.0,0,0,0.08695858651966465,0
3.822,36.38,0,0.0,0,0,0.08695858651966465,0
3.831,36.38,0,0.0,0,0,0.08695858651966465,0
3.84,36.38,0,0.0,0,0,0.08695858651966465,0
3.846,36.38,0,0.0,0,0,0.08695858651966465,0
3.85,36.38,0,0.0,0,0,0.08695858651966465,0
3.854,36.38,0,0.0,0,0,0.08695858651966465,0
3.86,36.38,0,0.0,0,0,0.08695858651966465,0
3.87,36.38,0,0.0,0,0,0.08695858651966465,0
3.877,36.38,0,0.0,0,0,0.08695858651966465,0
3.885,36.38,0,0.0,0,0,0.08695858651966465,0
3.896,36.38,0,0.0,0,0,0.08695858651966465,0
3.907,36.38,0,0.0,0,0,0.08695858651966465,0
3.913,36.38,0,0.0,0,0,0.08695858651966465,0
3.921,36.38,0,0.0,0,0,0.08695858651966465,0
3.932,36.38,0,0.0,0,0,0.08695858651966465,0
3.94,36.38,0,0.0,0,0,0.08695858651966465,0
3.944,36.38,0,0.0,0,0,0.08695858651966465,0
3.948,36.38,0,0.0,0,0,0.08695858651966465,0
3.955,36.38,0,0.0,0,0,0.08695858651966465,0
3.963,36.38,0,0.0,0,0,0.08695858651966465,0
3.975,36.38,0,0.0,0,0,0.08695858651966465,0
3.985,36.38,0,0.0,0,0,0.08695858651966465,0
3.989,36.38,0,0.0,0,0,0.08695858651966465,0
3.993,36.38,0,0.0,0,0,0.08695858651966465,0
4.0,36.38,0,0.0,0,0,0.08695858651966465,0
4.007,36.38,0,0.0,0,0,0.08695858651966465,0
4.018,36.38,0,0.0,0,0,0.08695858651966465,0
4.027,36.38,0,0.0,0,0,0.08695858651966465,0
4.034,36.38,0,0.0,0,0,0.08695858651966465,0
4.038,36.38,0,0.0,0,0,0.08695858651966465,0
4.042,36.38,0,0.0,0,0,0.08695858651966465,0
4.049,36.38,0,0.0,0,0,0.08695858651966465,0
4.057,36.38,0,0.0,0,0,0.08695858651966465,0
4.069,36.38,0,0.0,0,0,0.08695858651966465,0
4.077,36.38,0,0.0,0,0,0.08695858651966465,0
4.083,36.38,0,0.0,0,0,0.08695858651966465,0
4.087,36.38,0,0.0,0,0,0.08695858651966465,0
4.092,36.38,0,0.0,0,0,0.08695858651966465,0
4.102,36.38,0,0.0,0,0,0.08695858651966465,0
4.11,36.38,0,0.0,0,0,0.08695858651966465,0
4.118,36.38,0,0.0,0,0,0.08695858651966465,0
4.128,36.38,0,0.0,0,0,0.08695858651966465,0
4.133,36.38,0,0.0,0,0,0.08695858651966465,0
4.136,36.38,0,0.0,0,0,0.08695858651966465,0
4.145,36.38,0,0.0,0,0,0.08695858651966465,0
4.153,36.38,0,0.0,0,0,0.08695858651966465,0
4.159,36.38,0,0.0,0,0,0.08695858651966465,0
4.165,36.38,0,0.0,0,0,0.08695858651966465,0
4.174,36.38,0,0.0,0,0,0.08695858651966465,0
4.183,36.38,0,0.0,0,0,0.08695858651966465,0
4.19,36.38,0,0.0,0,0,0.08695858651966465,0
4.202,36.38,0,0.0,0,0,0.08695858651966465,0
4.207,36.38,0,0.0,0,0,0.08695858651966465,0
4.214,36.38,0,0.0,0,0,0.08695858651966465,0
4.218,36.38,0,0.0,0,0,0.08695858651966465,0
4.222,36.38,0,0.0,0,0,0.08695858651966465,0
4.226,36.38,0,0.0,0,0,0.08695858651966465,0
4.233,36.38,0,0.0,0,0,0.08695858651966465,0
4.24,36.38,0,0.0,0,0,0.08695858651966465,0
4.247,36.38,0,0.0,0,0,0.08695858651966465,0
4.257,36.38,0,0.0,0,0,0.08695858651966465,0
4.265,36.38,0,0.0,0,0,0.08695858651966465,0
4.272,36.38,0,0.0,0,0,0.08695858651966465,0
4.275,36.38,0,0.0,0,0,0.08695858651966465,0
4.282,36.38,0,0.0,0,0,0.08695858651966465,0
4.29,36.38,0,0.0,0,0,0.08695858651966465,0
4.297,36.38,0,0.0,0,0,0.08695858651966465,0
4.305,36.38,0,0.0,0,0,0.08695858651966465,0
4.312,36.38,0,0.0,0,0,0.08695858651966465,0
4.323,36.38,0,0.0,0,0,0.08695858651966465,0
4.331,36.38,0,0.0,0,0,0.08695858651966465,0
4.337,36.38,0,0.0,0,0,0.08695858651966465,0
4.342,36.38,0,0.0,0,0,0.08695858651966465,0
4.35,36.38,0,0.0,0,0,0.08695858651966465,0
4.357,36.38,0,0.0,0,0,0.08695858651966465,0
4.365,36.38,0,0.0,0,0,0.08695858651966465,0
4.373,36.38,0,0.0,0,0,0.08695858651966465,0
4.379,36.38,0,0.0,0,0,0.08695858651966465,0
4.388,36.38,0,0.0,0,0,0.08695858651966465,0
4.394,36.38,0,0.0,0,0,0.08695858651966465,0
4.399,36.38,0,0.0,0,0,0.08695858651966465,0
4.407,36.38,0,0.0,0,0,0.08695858651966465,0
4.415,36.38,0,0.0,0,0,0.08695858651966465,0
4.422,36.38,0,0.0,0,0,0.08695858651966465,0
4.429,36.38,0,0.0,0,0,0.08695858651966465,0
4.436,36.38,0,0.0,0,0,0.08695858651966465,0
4.443,36.38,0,0.0,0,0,0.08695858651966465,0
4.452,36.38,0,0.0,0,0,0.08695858651966465,0
4.461,36.38,0,0.0,0,0,0.08695858651966465,0
4.469,36.38,0,0.0,0,0,0.08695858651966465,0
4.478,36.38,0,0.0,0,0,0.08695858651966465,0
4.486,36.38,0,0.0,0,0,0.08695858651966465,0
4.497,36.38,0,0.0,0,0,0.08695858651966465,0
4.504,36.38,0,0.0,0,0,0.08695858651966465,0
4.509,36.38,0,0.0,0,0,0.08695858651966465,0
4.52,36.38,0,0.0,0,0,0.08695858651966465,0
4.53,36.38,0,0.0,0,0,0.08695858651966465,0
4.54,36.38,0,0.0,0,0,0.08695858651966465,0
4.549,36.38,0,0.0,0,0,0.08695858651966465,0
4.554,36.38,0,0.0,0,0,0.08695858651966465,0
4.558,36.38,0,0.0,0,0,0.08695858651966465,0
4.562,36.38,0,0.0,0,0,0.08695858651966465,0
4.57,36.38,0,0.0,0,0,0.08695858651966465,0
4.582,36.38,0,0.0,0,0,0.08695858651966465,0
4.589,36.38,0,0.0,0,0,0.08695858651966465,0
4.6,36.38,0,0.0,0,0,0.08695858651966465,0
4.608,36.38,0,0.0,0,0,0.08695858651966465,0
4.616,36.38,0,0.0,0,0,0.08695858651966465,0
4.624,36.38,0,0.0,0,0,0.08695858651966465,0
4.634,36.38,0,0.0,0,0,0.08695858651966465,0
4.64,36.38,0,0.0,0,0,0.08695858651966465,0
4.644,36.38,0,0.0,0,0,0.08695858651966465,0
4.648,36.38,0,0.0,0,0,0.08695858651966465,0
4.652,36.38,0,0.0,0,0,0.08695858651966465,0
4.656,36.38,0,0.0,0,0,0.08695858651966465,0
4.663,36.38,0,0.0,0,0,0.08695858651966465,0
4.673,36.38,0,0.0,0,0,0.08695858651966465,0
4.682,36.38,0,0.0,0,0,0.08695858651966465,0
4.689,36.38,0,0.0,0,0,0.08695858651966465,0
4.699,36.38,0,0.0,0,0,0.08695858651966465,0
4.707,36.38,0,0.0,0,0,0.08695858651966465,0
4.714,36.38,0,0.0,0,0,0.08695858651966465,0
4.719,36.38,0,0.0,0,0,0.08695858651966465,0
4.73,36.38,0,0.0,0,0,0.08695858651966465,0
4.738,36.38,0,0.0,0,0,0.08695858651966465,0
4.742,36.38,0,0.0,0,0,0.08695858651966465,0
4.746,36.38,0,0.0,0,0,0.08695858651966465,0
4.755,36.38,0,0.0,0,0,0.08695858651966465,0
4.764,36.38,0,0.0,0,0,0.08695858651966465,0
4.774,36.38,0,0.0,0,0,0.08695858651966465,0
4.784,36.38,0,0.0,0,0,0.08695858651966465,0
4.791,36.38,0,0.0,0,0,0.08695858651966465,0
4.8,36.38,0,0.0,0,0,0.08695858651966465,0
4.809,36.38,0,0.0,0,0,0.08695858651966465,0
4.817,36.38,0,0.0,0,0,0.08695858651966465,0
4.829,36.38,0,0.0,0,0,0.08695858651966465,0
4.837,36.38,0,0.0,0,0,0.08695858651966465,0
4.84,36.38,0,0.0,0,0,0.08695858651966465,0
4.847,36.38,0,0.0,0,0,0.08695858651966465,0
4.855,36.38,0,0.0,0,0,0.08695858651966465,0
4.861,36.38,0,0.0,0,0,0.08695858651966465,0
4.871,36.38,0,0.0,0,0,0.08695858651966465,0
4.878,36.38,0,0.0,0,0,0.08695858651966465,0
4.881,36.38,0,0.0,0,0,0.08695858651966465,0
4.889,36.38,0,0.0,0,0,0.08695858651966465,0
4.898,36.38,0,0.0,0,0,0.08695858651966465,0
4.904,36.38,0,0.0,0,0,0.08695858651966465,0
4.912,36.38,0,0.0,0,0,0.08695858651966465,0
4.918,36.38,0,0.0,0,0,0.08695858651966465,0
4.926,36.38,0,0.0,0,0,0.08695858651966465,0
4.931,36.38,0,0.0,0,0,0.08695858651966465,0
4.938,36.38,0,0.0,0,0,0.08695858651966465,0
4.943,36.38,0,0.0,0,0,0.08695858651966465,0
4.952,36.38,0,0.0,0,0,0.08695858651966465,0
4.962,36.38,0,0.0,0,0,0.08695858651966465,0
4.972,36.38,0,0.0,0,0,0.08695858651966465,0
4.981,36.38,0,0.0,0,0,0.08695858651966465,0
4.99,36.38,0,0.0,0,0,0.08695858651966465,0
4.998,36.38,0,0.0,0,0,0.08695858651966465,0
5.004,36.38,0,0.0,0,0,0.08695858651966465,0
5.012,36.38,0,0.0,0,0,0.08695858651966465,0
5.016,36.38,0,0.0,0,0,0.08695858651966465,0
5.021,36.38,0,0.0,0,0,0.08695858651966465,0
5.025,36.38,0,0.0,0,0,0.08695858651966465,0
5.029,36.38,0,0.0,0,0,0.08695858651966465,0
5.033,36.38,0,0.0,0,0,0.08695858651966465,0
5.039,36.38,0,0.0,0,0,0.08695858651966465,0
5.047,36.38,0,0.0,0,0,0.08695858651966465,0
5.057,36.38,0,0.0,0,0,0.08695858651966465,0
5.067,36.38,0,0.0,0,0,0.08695858651966465,0
5.077,36.38,0,0.0,0,0,0.08695858651966465,0
5.084,36.38,0,0.0,0,0,0.08695858651966465,0
5.092,36.38,0,0.0,0,0,0.08695858651966465,0
5.1,36.38,0,0.0,0,0,0.08695858651966465,0
5.109,36.38,0,0.0,0,0,0.08695858651966465,0
5.115,36.38,0,0.0,0,0,0.08695858651966465,0
5.119,36.38,0,0.0,0,0,0.08695858651966465,0
5.123,36.38,0,0.0,0,0,0.08695858651966465,0
5.127,36.38,0,0.0,0,0,0.08695858651966465,0
5.139,36.38,0,0.0,0,0,0.08695858651966465,0
5.15,36.38,0,0.0,0,0,0.08695858651966465,0
5.16,36.38,0,0.0,0,0,0.08695858651966465,0
5.168,36.38,0,0.0,0,0,0.08695858651966465,0
5.172,36.38,0,0.0,0,0,0.08695858651966465,0
5.18,36.38,0,0.0,0,0,0.08695858651966465,0
5.188,36.38,0,0.0,0,0,0.08695858651966465,0
5.195,36.38,0,0.0,0,0,0.08695858651966465,0
5.208,36.38,0,0.0,0,0,0.08695858651966465,0
