time,motor_angle,motor_setpoint,pendulum_angle,pendulum_setpoint,rpm,voltage,current
1.871,0.0,0,0.0,0,0,0,0
3.159,0.0,0,0.0,0,0,1.8547830176043458,0
3.165,0.0,0,0.0,0,0,3.472343563214547,0
3.168,0.0,0,0.0,0,0,3.4799556072037796,0
3.173,0.52,0,0.0,0,0,3.4849816884954357,82
3.177,1.75,0,0.0,0,36,3.4862516504102783,80
3.182,3.33,0,0.0,0,71,3.6067886158776417,77
3.186,5.62,0,0.0,0,95,3.7213964098187726,75
3.194,8.43,0,0.0,0,123,3.793652448542332,75
3.203,12.12,0,0.0,0,141,3.878646739418499,75
3.211,22.32,0,0.0,0,195,3.923887478527267,72
3.223,34.98,0,0.0,0,246,4.046467445970707,68
3.237,55.54,0,0.0,0,307,4.135821416179141,63
3.244,76.46,0,0.0,0,353,4.198026026173177,60
3.253,97.91,0,0.0,0,392,4.201765102611628,58
3.27,118.47,0,0.0,0,429,4.159479765345244,55
3.284,164.17,0,0.0,0,487,4.119125854093243,48
3.295,199.86,0,0.0,0,524,3.9525094092959074,43
3.301,242.05,0,0.0,0,562,3.7887094171899944,38
3.312,271.75,0,0.0,0,580,3.5881372811095336,33
3.323,291.97,0,0.0,0,590,3.357662628427396,26
3.333,339.96,0,0.0,0,607,3.1938286393305195,17
3.342,370.01,0,0.0,0,613,2.8220049761388633,13
3.351,410.27,0,0.0,0,620,2.5391342474764844,9
3.359,447.01,0,0.0,0,621,2.206777111682293,2
3.367,477.24,0,0.0,0,621,1.815325902041693,4
3.374,515.03,0,0.0,0,612,1.5166920450013937,11
3.378,542.81,0,0.0,0,600,1.1522172420097143,18
3.382,557.5699999999999,0,0.0,0,590,0.8584518713445077,21
3.386,572.16,0,0.0,0,585,0.6620467993839125,24
3.393,587.98,0,0.0,0,576,0.48261005042090943,27
3.404,601.17,0,0.0,0,563,0.20297358124536258,30
3.411,632.98,0,0.0,0,545,-0.07511358766434695,32
3.421,663.5699999999999,0,0.0,0,517,-0.5267836058595514,35
3.434,692.05,0,0.0,0,475,-0.9956868526162821,57
3.442,718.06,0,0.0,0,430,-1.541264412259983,63
3.449,741.44,0,0.0,0,380,-2.031330997168646,69
3.458,757.79,0,0.0,0,336,-2.5446759922544793,76
3.464,773.96,0,0.0,0,280,-2.97184293007052,82
3.468,786.26,0,0.0,0,229,-3.3815171604719767,88
3.473,793.12,0,0.0,0,189,-3.7276102085797875,105
3.476,796.46,0,0.0,0,164,-4.018887323032044,105
3.481,800.85,0,0.0,0,125,-4.191869717777433,111
3.492,802.96,0,0.0,0,101,-4.44216046393241,116
3.502,805.42,0,0.0,0,57,-4.836257869249739,114
3.51,804.9,0,0.0,0,-34,-5.239213571554551,109
3.518,798.39,0,0.0,0,-133,-5.677311275187514,111
3.529,791.36,0,0.0,0,-194,-6.120472104948099,129
3.536,780.29,0,0.0,0,-262,-6.489861654169512,121
3.544,763.76,0,0.0,0,-348,-6.831094827128872,121
3.551,744.25,0,0.0,0,-422,-7.1917859600084455,123
3.563,720.0,0,0.0,0,-498,-7.426397792475007,124
3.567,696.79,0,0.0,0,-566,-7.7243993929230435,126
3.571,661.46,0,0.0,0,-653,-7.849549180601934,122
3.577,647.75,0,0.0,0,-683,-7.986015587226957,128
3.584,627.89,0,0.0,0,-727,-8.110314078596343,125
3.593,593.4300000000001,0,0.0,0,-792,-8.219283609329189,122
3.602,563.02,0,0.0,0,-842,-8.337573553673757,119
3.612,514.86,0,0.0,0,-921,-8.439564263612382,113
3.623,455.62,0,0.0,0,-1000,-8.489423922478895,107
3.638,399.19,0,0.0,0,-1063,-8.491898669209059,101
3.649,317.28,0,0.0,0,-1150,-8.448125556986266,93
3.657,201.79,0,0.0,0,-1244,-8.267305712462038,80
3.661,118.12,0,0.0,0,-1303,-7.791462256199589,72
3.665,85.42,0,0.0,0,-1324,-7.410776752018941,65
3.672,56.07,0,0.0,0,-1334,-7.257334721057075,50
3.678,17.05,0,0.0,0,-1351,-7.086131259534202,37
3.686,-45.0,0,0.0,0,-1365,-6.86298863983486,32
3.695,-99.14,0,0.0,0,-1379,-6.454206732682897,28
3.705,-156.09,0,0.0,0,-1389,-6.07477815959979,23
3.71,-248.37,0,0.0,0,-1400,-5.655383669019813,15
3.719,-324.84,0,0.0,0,-1404,-4.998691854895983,3
3.727,-365.8,0,0.0,0,-1400,-4.377865721437539,7
3.737,-441.56,0,0.0,0,-1385,-3.993617387245053,22
3.748,-504.49,0,0.0,0,-1363,-3.2420846098893374,34
3.755,-603.45,0,0.0,0,-1332,-2.5975014241931396,36
3.759,-662.3399999999999,0,0.0,0,-1309,-1.6626840248584471,45
3.765,-715.6,0,0.0,0,-1274,-1.0671913153423205,58
3.773,-750.05,0,0.0,0,-1251,-0.4416267358049124,85
3.78,-794.35,0,0.0,0,-1207,0.059477026636611696,92
3.793,-863.78,0,0.0,0,-1134,0.7596130883729887,100
3.802,-925.31,0,0.0,0,-1046,1.7321934796389287,125
3.812,-980.5,0,0.0,0,-953,2.7429356461934518,131
3.818,-1032.8899999999999,0,0.0,0,-851,3.7415438564166457,141
3.829,-1077.3600000000001,0,0.0,0,-741,4.645614952202671,154
3.84,-1103.9,0,0.0,0,-660,5.716812794150213,173
3.85,-1144.86,0,0.0,0,-493,6.537497861910259,179
3.859,-1172.81,0,0.0,0,-338,7.703657110303092,189
3.867,-1187.4,0,0.0,0,-198,8.811222530729836,196
3.879,-1194.25,0,0.0,0,-61,9.639268883704819,211
3.89,-1191.44,0,0.0,0,110,10.645443677661213,222
3.894,-1174.57,0,0.0,0,323,11.49287379603179,221
3.899,-1157.69,0,0.0,0,446,12.245205187200158,236
3.906,-1147.5,0,0.0,0,520,12.685033127911629,260
3.915,-1131.67,0,0.0,0,599,13.135015637264273,262
3.925,-1096.17,0,0.0,0,776,13.624382532041139,254
3.937,-1047.48,0,0.0,0,934,14.303009793774573,262
3.946,-954.84,0,0.0,0,1202,14.900614427801951,229
3.954,-892.26,0,0.0,0,1335,15.393593253838432,232
3.96,-819.49,0,0.0,0,1483,15.619108756841435,232
3.97,-747.07,0,0.0,0,1610,15.78400106791059,229
3.977,-680.0899999999999,0,0.0,0,1720,15.886665449784768,215
3.987,-592.2,0,0.0,0,1842,15.934001798899036,201
3.994,-512.92,0,0.0,0,1941,15.91081846738202,190
4.003,-389.53,0,0.0,0,2067,15.81586482077314,175
4.011,-295.48,0,0.0,0,2163,15.486324019156797,164
4.02,-179.29,0,0.0,0,2262,15.218302493660179,152
4.03,-75.76,0,0.0,0,2339,14.818714579809413,143
4.038,108.45,0,0.0,0,2464,14.371596410557494,125
4.048,200.56,0,0.0,0,2510,13.480860639674368,106
4.056,352.96,0,0.0,0,2574,12.952548146332365,90
4.067,477.24,0,0.0,0,2608,12.016710934061528,59
4.075,613.3,0,0.0,0,2630,11.096923840231078,44
4.083,825.99,0,0.0,0,2651,10.113818809429315,23
4.091,922.14,0,0.0,0,2652,8.52715836506186,3
4.101,1031.83,0,0.0,0,2640,7.6290408637846925,21
4.108,1170.17,0,0.0,0,2607,6.53507465430029,36
4.118,1317.3,0,0.0,0,2574,5.158367081581121,53
4.128,1463.55,0,0.0,0,2522,3.6824824028870022,79
4.134,1606.99,0,0.0,0,2438,2.1895628038224277,112
4.143,1699.62,0,0.0,0,2362,0.5776925716055761,151
4.15,1797.3600000000001,0,0.0,0,2254,-0.756801790291358,188
4.161,1915.66,0,0.0,0,2124,-2.164847806497392,217
4.17,2002.85,0,0.0,0,1982,-4.131073181086605,262
4.178,2139.6,0,0.0,0,1747,-5.567277808774452,264
4.187,2202.71,0,0.0,0,1603,-7.932738929003852,302
4.194,2292.89,0,0.0,0,1375,-9.419586844491956,317
4.202,2362.5,0,0.0,0,1130,-11.222775283274352,355
4.213,2406.26,0,0.0,0,938,-13.209410094993553,375
4.222,2446.87,0,0.0,0,696,-14.841927844641503,396
4.232,2481.15,0,0.0,0,367,-16.502350038609368,411
4.24,2492.57,0,0.0,0,120,-18.630237792317324,425
4.25,2489.76,0,0.0,0,-183,-20.042975635622216,443
4.262,2477.98,0,0.0,0,-366,-21.888697917103244,382
4.267,2426.3,0,0.0,0,-751,-23.117203028450533,336
4.272,2384.64,0,0.0,0,-936,-24,313
4.281,2364.78,0,0.0,0,-1022,-24,304
4.289,2327.16,0,0.0,0,-1138,-24,290
4.298,2258.61,0,0.0,0,-1321,-24,269
4.305,2192.69,0,0.0,0,-1464,-24,254
4.312,2093.55,0,0.0,0,-1642,-24,228
4.316,2017.96,0,0.0,0,-1754,-24,214
4.32,1969.45,0,0.0,0,-1815,-24,206
4.329,1927.26,0,0.0,0,-1883,-24,200
4.337,1866.09,0,0.0,0,-1958,-24,193
4.347,1757.98,0,0.0,0,-2069,-24,178
4.357,1665.7,0,0.0,0,-2151,-24,167
4.361,1489.74,0,0.0,0,-2295,-24,157
4.366,1397.81,0,0.0,0,-2365,-24,142
4.377,1344.37,0,0.0,0,-2402,-24,137
4.387,1251.38,0,0.0,0,-2463,-24,132
4.396,1089.66,0,0.0,0,-2555,-24,124
4.402,913.88,0,0.0,0,-2640,-24,107
4.406,780.29,0,0.0,0,-2709,-24,102
4.413,710.85,0,0.0,0,-2731,-24,103
4.42,637.73,0,0.0,0,-2762,-24,94
4.427,524.0,0,0.0,0,-2798,-24,89
4.437,399.37,0,0.0,0,-2853,-24,82
4.447,267.01,0,0.0,0,-2889,-24,79
4.456,30.93,0,0.0,0,-2961,-23.66866632081746,72
4.466,-89.47,0,0.0,0,-2991,-22.240699368457967,71
4.474,-290.91,0,0.0,0,-3043,-21.465149971315782,61
4.482,-417.12,0,0.0,0,-3071,-20.15221166766161,58
4.493,-551.77,0,0.0,0,-3089,-19.21296823763538,53
4.501,-751.28,0,0.0,0,-3139,-18.171280353622002,49
4.507,-930.9300000000001,0,0.0,0,-3167,-16.77520140038111,47
4.515,-1055.74,0,0.0,0,-3182,-15.408458642901936,46
4.524,-1194.25,0,0.0,0,-3197,-14.330388160296776,44
4.53,-1346.66,0,0.0,0,-3234,-13.054918631798799,43
4.541,-1531.58,0,0.0,0,-3243,-11.792314048412068,19
4.55,-1685.91,0,0.0,0,-3234,-10.117405393168363,14
4.561,-1853.08,0,0.0,0,-3215,-8.55817011851675,19
4.568,-2044.16,0,0.0,0,-3173,-6.831408300076806,48
4.577,-2217.83,0,0.0,0,-3120,-4.8661850094579755,83
4.59,-2354.41,0,0.0,0,-3043,-2.6309707665587956,130
4.595,-2618.43,0,0.0,0,-2863,-0.7953098862088286,172
4.602,-2742.89,0,0.0,0,-2723,1.9943877311385823,232
4.61,-2796.85,0,0.0,0,-2658,3.982685210458344,273
4.616,-2928.86,0,0.0,0,-2454,5.3035993351513815,355
4.627,-3048.39,0,0.0,0,-2219,7.607797947350191,381
4.636,-3143.32,0,0.0,0,-2009,10.130164286299097,379
4.64,-3255.29,0,0.0,0,-1699,12.062256045682387,406
4.644,-3317.51,0,0.0,0,-1473,14.294961632891914,450
4.648,-3351.26,0,0.0,0,-1326,15.892710054138313,489
4.652,-3378.86,0,0.0,0,-1171,17.11358513866566,527
4.656,-3409.98,0,0.0,0,-994,18.226733504606592,550
4.668,-3432.12,0,0.0,0,-859,19.44461590522976,521
4.674,-3456.91,0,0.0,0,-654,21.233097618887694,498
4.685,-3486.97,0,0.0,0,-304,22.605669439004455,497
4.699,-3493.82,0,0.0,0,-113,24,430
4.706,-3476.77,0,0.0,0,402,24,371
4.714,-3452.69,0,0.0,0,605,24,348
4.721,-3423.33,0,0.0,0,767,24,328
4.734,-3380.97,0,0.0,0,952,24,305
4.744,-3291.32,0,0.0,0,1245,24,272
4.751,-3234.19,0,0.0,0,1369,24,257
4.763,-3142.79,0,0.0,0,1558,24,236
4.771,-3080.39,0,0.0,0,1672,24,221
4.779,-2943.98,0,0.0,0,1861,24,198
4.783,-2862.77,0,0.0,0,1957,24,187
4.787,-2778.04,0,0.0,0,2046,24,177
4.793,-2736.91,0,0.0,0,2096,24,173
4.801,-2674.33,0,0.0,0,2140,24,165
4.811,-2588.02,0,0.0,0,2226,24,163
4.817,-2478.33,0,0.0,0,2311,24,145
4.824,-2357.57,0,0.0,0,2391,24,137
4.837,-2228.2,0,0.0,0,2481,24,130
4.845,-2084.06,0,0.0,0,2561,24,117
4.857,-1955.21,0,0.0,0,2626,24,108
4.861,-1816.52,0,0.0,0,2690,24,101
4.873,-1647.77,0,0.0,0,2770,24,97
4.877,-1488.86,0,0.0,0,2823,24,86
4.881,-1367.92,0,0.0,0,2865,24,82
4.885,-1298.84,0,0.0,0,2886,24,78
4.891,-1217.63,0,0.0,0,2904,24,74
4.899,-1162.79,0,0.0,0,2913,24,74
4.908,-1007.4,0,0.0,0,2972,24,72
4.915,-916.52,0,0.0,0,2991,24,66
4.927,-736.17,0,0.0,0,3030,24,60
4.937,-488.49,0,0.0,0,3089,24,55
4.945,-350.85,0,0.0,0,3110,24,50
4.954,-201.26,0,0.0,0,3148,24,48
4.961,-51.5,0,0.0,0,3160,24,47
4.969,105.99,0,0.0,0,3195,24,44
4.976,297.07,0,0.0,0,3223,24,42
4.985,455.97,0,0.0,0,3257,24,41
4.992,563.55,0,0.0,0,3268,24,39
5.002,737.57,0,0.0,0,3289,24,37
5.013,883.8199999999999,0,0.0,0,3308,24,37
5.021,1140.29,0,0.0,0,3345,22.9153743019517,33
5.025,1326.62,0,0.0,0,3360,21.073570310629037,32
5.032,1421.3600000000001,0,0.0,0,3362,19.66227112504912,32
5.038,1507.85,0,0.0,0,3374,18.65224878180448,31
5.047,1676.07,0,0.0,0,3384,17.836087705044726,29
5.055,1825.48,0,0.0,0,3411,16.22346022610354,26
5.071,2018.1399999999999,0,0.0,0,3421,14.810975212370982,24
5.08,2229.6,0,0.0,0,3444,12.710001445548029,24
5.089,2489.58,0,0.0,0,3449,10.789468997098005,7
5.096,2663.08,0,0.0,0,3449,8.415369691369284,18
5.105,2816.54,0,0.0,0,3391,6.531460242935184,49
5.116,2994.43,0,0.0,0,3326,4.349364923572997,112
5.123,3233.14,0,0.0,0,3180,2.1234059334997664,160
5.132,3406.46,0,0.0,0,3035,-0.783802124809144,208
5.14,3534.25,0,0.0,0,2893,-3.169935574111724,262
5.149,3669.96,0,0.0,0,2698,-5.317290149159097,347
5.156,3774.55,0,0.0,0,2506,-7.774188613522492,379
5.164,3889.51,0,0.0,0,2271,-10.119594499636193,418
5.173,4024.68,0,0.0,0,1912,-12.440590339251875,446
5.182,4083.22,0,0.0,0,1716,-15.693596300002888,487
5.19,4166.19,0,0.0,0,1385,-17.746717288342445,513
5.201,4227.71,0,0.0,0,1042,-20.39911654635216,551
5.213,4281.85,0,0.0,0,646,-23.315246467209057,504
5.222,4306.81,0,0.0,0,365,-24,469
5.232,4318.41,0,0.0,0,-45,-24,422
5.243,4309.98,0,0.0,0,-274,-24,393
5.25,4277.98,0,0.0,0,-596,-24,354
5.254,4233.51,0,0.0,0,-838,-24,325
5.262,4209.08,0,0.0,0,-952,-24,316
5.271,4179.19,0,0.0,0,-1059,-24,297
5.279,4120.48,0,0.0,0,-1227,-24,278
5.293,4057.38,0,0.0,0,-1373,-24,261
5.299,3929.41,0,0.0,0,-1618,-24,233
5.306,3836.6,0,0.0,0,-1758,-24,215
5.312,3784.92,0,0.0,0,-1830,-24,205
5.32,3691.4,0,0.0,0,-1948,-24,193
5.329,3619.86,0,0.0,0,-2025,-24,181
5.34,3519.31,0,0.0,0,-2127,-24,171
5.351,3345.82,0,0.0,0,-2277,-24,153
5.359,3236.83,0,0.0,0,-2349,-24,143
5.371,3105.35,0,0.0,0,-2401,-24,136
5.382,2968.41,0,0.0,0,-2449,-24,132
5.389,2780.68,0,0.0,0,-2445,-24,132
5.393,2645.85,0,0.0,0,-2412,-24,136
5.397,2558.14,0,0.0,0,-2379,-24,138
5.401,2509.1,0,0.0,0,-2357,-24,143
5.405,2444.06,0,0.0,0,-2325,-24,145
5.412,2387.63,0,0.0,0,-2287,-24,150
5.418,2334.37,0,0.0,0,-2252,-24,154
5.427,2228.73,0,0.0,0,-2172,-24,166
5.437,2160.52,0,0.0,0,-2132,-24,168
5.447,2052.42,0,0.0,0,-2074,-24,176
5.456,1881.73,0,0.0,0,-1988,-24,187
5.465,1797.01,0,0.0,0,-1947,-24,191
5.473,1677.3,0,0.0,0,-1898,-24,197
5.481,1591.52,0,0.0,0,-1849,-24,209
5.492,1515.41,0,0.0,0,-1800,-24,209
5.501,1408.18,0,0.0,0,-1734,-24,217
5.512,1313.43,0,0.0,0,-1660,-24,228
5.521,1221.5,0,0.0,0,-1551,-24,239
5.528,1111.11,0,0.0,0,-1404,-24,273
5.532,1034.82,0,0.0,0,-1321,-24,266
5.536,1002.65,0,0.0,0,-1282,-24,271
5.541,968.2,0,0.0,0,-1244,-24,277
5.548,944.64,0,0.0,0,-1203,-24,279
5.555,909.84,0,0.0,0,-1160,-24,292
5.562,860.44,0,0.0,0,-1063,-24,297
5.573,818.61,0,0.0,0,-985,-24,306
5.582,773.96,0,0.0,0,-901,-24,317
5.594,703.47,0,0.0,0,-787,-24,330
5.603,669.9,0,0.0,0,-749,-24,341
5.612,624.02,0,0.0,0,-681,-24,342
5.622,590.62,0,0.0,0,-647,-24,379
5.626,535.95,0,0.0,0,-576,-24,355
5.631,521.89,0,0.0,0,-555,-24,358
5.637,509.94,0,0.0,0,-538,-24,367
5.644,495.16999999999996,0,0.0,0,-512,-24,363
5.652,474.08,0,0.0,0,-483,-24,385
5.663,454.74,0,0.0,0,-467,-24,369
5.678,431.71,0,0.0,0,-461,-24,407
5.687,387.94,0,0.0,0,-472,-24,368
5.694,358.76,0,0.0,0,-491,-24,365
5.701,330.64,0,0.0,0,-538,-24,383
5.714,309.02,0,0.0,0,-577,-24,357
5.721,262.44,0,0.0,0,-672,-24,344
5.725,232.38,0,0.0,0,-703,-24,366
5.734,202.85,0,0.0,0,-737,-24,336
5.742,185.44,0,0.0,0,-768,-24,332
5.754,142.38,0,0.0,0,-784,-24,331
5.762,98.61,0,0.0,0,-815,-24,327
5.772,29.35,0,0.0,0,-842,-24,326
5.78,-6.85,0,0.0,0,-880,-24,342
5.787,-50.8,0,0.0,0,-924,-24,315
5.795,-100.89,0,0.0,0,-984,-24,306
5.808,-146.07,0,0.0,0,-1041,-24,298
5.815,-234.66,0,0.0,0,-1111,-24,291
5.819,-288.98,0,0.0,0,-1147,-24,313
5.827,-321.15,0,0.0,0,-1167,-24,283
5.836,-353.84,0,0.0,0,-1190,-24,282
5.844,-417.48,0,0.0,0,-1258,-24,274
5.858,-483.22,0,0.0,0,-1332,-24,266
5.866,-598.88,0,0.0,0,-1427,-24,253
5.874,-687.48,0,0.0,0,-1474,-24,253
5.881,-747.07,0,0.0,0,-1514,-24,244
5.891,-837.42,0,0.0,0,-1583,-24,235
5.905,-888.75,0,0.0,0,-1618,-24,243
5.909,-1041.15,0,0.0,0,-1712,-24,218
5.916,-1117.44,0,0.0,0,-1761,-23.451737034073346,213
5.924,-1162.26,0,0.0,0,-1792,-22.85358685238466,211
5.931,-1248.04,0,0.0,0,-1841,-22.373557973537565,211
5.939,-1335.23,0,0.0,0,-1878,-21.64644427656938,199
5.95,-1433.1399999999999,0,0.0,0,-1915,-20.732840157180476,193
5.961,-1547.22,0,0.0,0,-1970,-19.795693650673833,189
5.968,-1675.01,0,0.0,0,-1999,-18.77768314925715,184
5.978,-1774.8600000000001,0,0.0,0,-2026,-17.636559073025822,182
5.987,-1859.06,0,0.0,0,-2041,-16.5139628017553,180
5.996,-1990.37,0,0.0,0,-2064,-15.33174788803242,176
6.003,-2121.5,0,0.0,0,-2055,-13.969965821555757,177
6.012,-2231.89,0,0.0,0,-2069,-12.768283477935821,176
6.021,-2286.73,0,0.0,0,-2057,-11.462403268281232,141
6.032,-2397.12,0,0.0,0,-1994,-10.381435687251063,112
6.044,-2510.33,0,0.0,0,-1922,-8.700230120339658,88
6.056,-2653.41,0,0.0,0,-1808,-6.7933026350166195,66
6.067,-2761.52,0,0.0,0,-1666,-4.406105570876949,37
6.076,-2881.23,0,0.0,0,-1467,-2.3664016077337706,14
6.086,-2958.04,0,0.0,0,-1312,-0.013808214923528794,27
6.099,-3031.52,0,0.0,0,-1108,2.0719528274090084,50
6.107,-3102.18,0,0.0,0,-782,4.241934763683229,85
6.115,-3143.32,0,0.0,0,-465,6.571709422715163,103
6.124,-3160.01,0,0.0,0,-244,8.492226764113576,135
6.132,-3164.94,0,0.0,0,-89,10.35844706255327,178
6.144,-3161.07,0,0.0,0,121,11.824706423129795,211
6.153,-3148.59,0,0.0,0,188,13.418335937522217,281
6.162,-3139.1,0,0.0,0,240,14.27455038832312,291
6.169,-3126.09,0,0.0,0,310,15.186969040291109,357
6.178,-3106.75,0,0.0,0,372,16.044835398134783,345
6.188,-3089.7,0,0.0,0,422,17.001725683755303,363
6.199,-3052.44,0,0.0,0,491,17.841389870368413,358
6.205,-3029.41,0,0.0,0,505,18.59374451988083,365
6.213,-3003.39,0,0.0,0,505,19.079602491455617,359
6.221,-2983.71,0,0.0,0,502,19.66116451448985,358
6.233,-2960.15,0,0.0,0,456,20.441700328839346,363
6.243,-2930.8,0,0.0,0,408,20.870681257506185,368
6.251,-2909.53,0,0.0,0,366,21.24432071979998,400
6.258,-2890.37,0,0.0,0,320,21.60814902054612,379
6.271,-2874.55,0,0.0,0,289,22.21449471896113,382
6.282,-2858.37,0,0.0,0,272,22.973572057569545,385
6.288,-2836.4,0,0.0,0,314,23.367143570808476,378
6.295,-2822.16,0,0.0,0,382,24,373
6.304,-2804.41,0,0.0,0,459,24,364
6.314,-2778.57,0,0.0,0,572,24,350
6.325,-2747.63,0,0.0,0,672,24,343
6.332,-2698.41,0,0.0,0,769,24,326
6.341,-2655.0,0,0.0,0,844,24,316
6.349,-2615.8,0,0.0,0,896,24,310
6.357,-2565.52,0,0.0,0,954,24,308
6.369,-2524.04,0,0.0,0,991,24,303
6.376,-2454.6,0,0.0,0,1044,24,295
6.38,-2391.67,0,0.0,0,1078,24,289
6.384,-2360.21,0,0.0,0,1084,24,289
6.388,-2332.44,0,0.0,0,1086,24,288
6.396,-2308.0,0,0.0,0,1084,24,304
6.402,-2276.71,0,0.0,0,1073,24,291
6.411,-2224.68,0,0.0,0,1075,24,290
6.42,-2180.21,0,0.0,0,1070,24,291
6.432,-2128.88,0,0.0,0,1074,24,290
6.442,-2052.07,0,0.0,0,1089,24,288
6.451,-1982.28,0,0.0,0,1099,24,286
6.458,-1926.03,0,0.0,0,1103,24,307
6.465,-1862.05,0,0.0,0,1138,24,282
6.477,-1823.02,0,0.0,0,1147,24,281
6.487,-1751.13,0,0.0,0,1159,24,279
6.497,-1673.78,0,0.0,0,1165,24,279
6.503,-1597.32,0,0.0,0,1169,24,278
6.518,-1547.57,0,0.0,0,1189,24,297
6.528,-1469.35,0,0.0,0,1235,24,280
6.54,-1395.87,0,0.0,0,1243,24,269
6.55,-1308.51,0,0.0,0,1267,24,281
6.563,-1217.1,0,0.0,0,1272,24,266
6.573,-1125.52,0,0.0,0,1338,24,263
6.583,-1022.69,0,0.0,0,1352,24,258
6.59,-951.67,0,0.0,0,1334,24,258
6.601,-877.3199999999999,0,0.0,0,1349,24,258
6.612,-820.72,0,0.0,0,1355,24,257
6.619,-716.8299999999999,0,0.0,0,1377,24,253
6.628,-633.3299999999999,0,0.0,0,1366,24,255
6.641,-578.14,0,0.0,0,1361,24,256
6.653,-508.0,0,0.0,0,1346,24,271
6.659,-379.51,0,0.0,0,1375,24,254
6.663,-317.28,0,0.0,0,1360,24,255
6.667,-267.53,0,0.0,0,1345,24,260
6.671,-236.6,0,0.0,0,1338,24,258
6.678,-199.33,0,0.0,0,1333,24,259
6.684,-168.04,0,0.0,0,1329,24,273
6.692,-112.5,0,0.0,0,1332,24,261
6.702,-52.55,0,0.0,0,1348,24,257
6.712,11.25,0,0.0,0,1337,24,275
6.722,114.6,0,0.0,0,1304,24,275
6.729,178.94,0,0.0,0,1284,24,264
6.74,235.01,0,0.0,0,1286,24,270
6.752,303.22,0,0.0,0,1298,24,263
6.761,410.97,0,0.0,0,1276,23.76484151456291,279
6.771,478.65,0,0.0,0,1236,22.833577972171796,271
6.781,542.46,0,0.0,0,1192,22.106927409571746,275
6.792,614.0,0,0.0,0,1190,21.33620363002206,277
6.798,697.3199999999999,0,0.0,0,1200,20.663649236458504,275
6.802,771.15,0,0.0,0,1161,20.03518102500234,297
6.808,794.17,0,0.0,0,1148,19.276030667585857,291
6.815,824.06,0,0.0,0,1127,18.942400347784258,284
6.824,874.16,0,0.0,0,1091,18.50596803843068,289
6.832,915.29,0,0.0,0,1070,17.81823772055349,292
6.844,972.94,0,0.0,0,1067,17.187179329740964,294
6.854,1040.09,0,0.0,0,1061,16.53523073700147,291
6.86,1103.37,0,0.0,0,1032,15.761032966430788,295
6.87,1159.1,0,0.0,0,993,15.035224685563382,299
6.881,1199.53,0,0.0,0,963,14.194730526456198,303
6.889,1252.08,0,0.0,0,920,13.417927591579042,317
6.902,1322.57,0,0.0,0,868,12.56018247766427,282
6.91,1372.5,0,0.0,0,833,11.453076140732371,270
6.917,1422.94,0,0.0,0,735,10.75598880337291,252
6.926,1450.54,0,0.0,0,657,9.790766235519449,247
6.934,1476.21,0,0.0,0,564,8.97259248897845,221
6.943,1503.8,0,0.0,0,445,8.149857662305926,210
6.955,1521.73,0,0.0,0,341,7.054548881759297,198
6.964,1540.19,0,0.0,0,197,6.2383929223570895,193
6.974,1547.92,0,0.0,0,122,5.19266573243447,172
6.982,1552.5,0,0.0,0,57,4.333228192126395,173
6.992,1554.25,0,0.0,0,16,3.823913698235822,134
7.002,1554.08,0,0.0,0,-7,3.20619731179087,118
7.007,1553.9,0,0.0,0,-6,2.790919387181992,105
7.02,1553.55,0,0.0,0,-6,2.374480732519956,86
7.027,1553.37,0,0.0,0,-4,1.9135823803364076,74
7.032,1552.85,0,0.0,0,-4,1.7534487352635395,60
