time,motor_angle,motor_setpoint,pendulum_angle,pendulum_setpoint,rpm,voltage,current
2.384,0.0,0,0.0,0,0,0,0
2.393,0.0,0,0.0,0,0,7.204719152232592,0
2.401,0.0,0,0.0,0,0,7.204719152232592,0
2.411,2.63,0,0.0,0,85,7.204719152232592,182
2.422,9.84,0,0.0,0,184,6.966167550070007,170
2.429,32.69,0,0.0,0,350,6.688325095786525,151
2.437,50.44,0,0.0,0,427,6.222447849210183,134
2.445,79.8,0,0.0,0,518,6.006348162545253,116
2.455,104.58,0,0.0,0,572,5.750957623759427,97
2.462,129.9,0,0.0,0,611,5.599407194150255,86
2.47,160.31,0,0.0,0,658,5.489954106099187,74
2.477,193.0,0,0.0,0,695,5.3580491025504635,65
2.488,234.66,0,0.0,0,737,5.254208993373808,56
2.495,267.71,0,0.0,0,763,5.136336437011119,49
2.505,307.08,0,0.0,0,788,5.063367711643741,43
2.515,344.7,0,0.0,0,808,4.993205475713569,37
2.525,399.02,0,0.0,0,835,4.937075686969431,34
2.532,444.55,0,0.0,0,851,4.861300472164846,28
2.539,492.71000000000004,0,0.0,0,869,4.8163966411695345,24
2.549,525.05,0,0.0,0,875,4.765879831299811,22
2.555,568.3,0,0.0,0,888,4.74904089467657,21
2.559,619.8,0,0.0,0,899,4.712556531992881,19
2.563,650.74,0,0.0,0,908,4.681685148183605,18
2.567,671.48,0,0.0,0,912,4.656426743248743,17
2.572,695.39,0,0.0,0,918,4.645200785499915,16
2.582,717.36,0,0.0,0,924,4.628361848876674,16
2.59,761.13,0,0.0,0,929,4.611522912253433,15
2.6,800.33,0,0.0,0,936,4.5974904650673984,14
2.612,859.21,0,0.0,0,942,4.5778450390069505,13
2.62,919.51,0,0.0,0,951,4.561006102383709,13
2.626,969.96,0,0.0,0,961,4.535747697448848,12
2.637,1015.48,0,0.0,0,965,4.507682803076778,10
2.648,1069.8,0,0.0,0,971,4.49645684532795,9
2.657,1127.28,0,0.0,0,977,4.479617908704709,8
2.667,1183.71,0,0.0,0,982,4.462778972081468,8
2.676,1241.19,0,0.0,0,984,4.448746524895434,7
2.691,1292.87,0,0.0,0,986,4.44313354602102,6
2.698,1369.51,0,0.0,0,990,4.437520567146606,5
2.704,1435.78,0,0.0,0,993,4.426294609397779,4
2.713,1475.15,0,0.0,0,997,4.417875141086158,4
2.725,1523.49,0,0.0,0,999,4.40664918333733,4
2.735,1574.29,0,0.0,0,995,4.401036204462917,3
2.739,1656.73,0,0.0,0,1002,4.412262162211745,3
2.743,1696.28,0,0.0,0,1004,4.392616736151297,3
2.748,1723.88,0,0.0,0,1002,4.387003757276882,3
2.758,1747.96,0,0.0,0,1002,4.392616736151297,2
2.765,1785.05,0,0.0,0,1004,4.392616736151297,2
2.773,1845.17,0,0.0,0,1004,4.387003757276882,2
2.784,1880.68,0,0.0,0,1003,4.387003757276882,2
2.789,1964.88,0,0.0,0,1003,4.38981024671409,2
2.793,1995.46,0,0.0,0,1005,4.38981024671409,2
2.801,2019.02,0,0.0,0,1006,4.384197267839675,2
2.809,2044.51,0,0.0,0,1002,4.381390778402468,2
2.819,2100.41,0,0.0,0,1005,4.392616736151297,2
2.829,2149.8,0,0.0,0,1006,4.384197267839675,2
2.833,2218.18,0,0.0,0,1007,4.381390778402468,2
2.838,2269.86,0,0.0,0,1008,4.3785842889652615,1
2.842,2289.02,0,0.0,0,1006,4.375777799528055,1
2.848,2316.44,0,0.0,0,1007,4.381390778402468,2
2.857,2341.05,0,0.0,0,1006,4.3785842889652615,2
2.867,2381.13,0,0.0,0,1007,4.381390778402468,1
2.878,2435.09,0,0.0,0,1008,4.3785842889652615,2
2.887,2509.1,0,0.0,0,1004,4.375777799528055,2
2.891,2569.92,0,0.0,0,1008,4.387003757276882,2
2.902,2612.98,0,0.0,0,1008,4.375777799528055,2
2.909,2655.87,0,0.0,0,1009,4.375777799528055,1
2.919,2705.27,0,0.0,0,1007,4.372971310090848,2
2.928,2749.57,0,0.0,0,1008,4.3785842889652615,1
2.932,2820.23,0,0.0,0,1007,4.375777799528055,1
2.936,2861.54,0,0.0,0,1010,4.3785842889652615,1
2.944,2884.74,0,0.0,0,1007,4.370164820653641,2
2.954,2911.64,0,0.0,0,1012,4.3785842889652615,1
2.963,2968.24,0,0.0,0,1009,4.364551841779227,1
2.972,3025.19,0,0.0,0,1007,4.372971310090848,1
2.977,3084.96,0,0.0,0,1009,4.3785842889652615,1
2.981,3131.54,0,0.0,0,1011,4.372971310090848,1
2.985,3157.73,0,0.0,0,1009,4.367358331216435,2
2.993,3183.39,0,0.0,0,1010,4.372971310090848,1
2.998,3208.0,0,0.0,0,1006,4.370164820653641,1
3.006,3261.09,0,0.0,0,1011,4.381390778402468,2
3.011,3288.16,0,0.0,0,1010,4.367358331216435,1
3.019,3334.39,0,0.0,0,1009,4.370164820653641,1
3.026,3362.51,0,0.0,0,1007,4.372971310090848,0
3.03,3425.27,0,0.0,0,1006,4.3785842889652615,1
3.035,3456.73,0,0.0,0,1010,4.381390778402468,2
3.042,3478.71,0,0.0,0,1010,4.370164820653641,2
3.05,3505.95,0,0.0,0,1009,4.370164820653641,2
3.059,3550.7799999999997,0,0.0,0,1010,4.372971310090848,1
3.068,3600.7,0,0.0,0,1009,4.370164820653641,1
3.075,3668.02,0,0.0,0,1010,4.372971310090848,1
3.079,3715.66,0,0.0,0,1008,4.370164820653641,1
3.084,3754.68,0,0.0,0,1007,4.375777799528055,1
3.094,3778.76,0,0.0,0,1006,4.3785842889652615,1
3.101,3822.01,0,0.0,0,1007,4.381390778402468,2
3.113,3871.93,0,0.0,0,1010,4.3785842889652615,1
3.121,3928.88,0,0.0,0,1008,4.370164820653641,1
3.125,3989.88,0,0.0,0,1010,4.375777799528055,1
3.129,4027.5,0,0.0,0,1011,4.370164820653641,1
3.137,4051.23,0,0.0,0,1006,4.367358331216435,1
3.146,4076.71,0,0.0,0,1006,4.381390778402468,0
3.155,4131.03,0,0.0,0,1006,4.381390778402468,1
3.164,4182.01,0,0.0,0,1007,4.381390778402468,2
3.172,4233.51,0,0.0,0,1007,4.3785842889652615,1
3.181,4294.33,0,0.0,0,1011,4.3785842889652615,1
3.192,4344.78,0,0.0,0,1008,4.367358331216435,1
3.198,4395.58,0,0.0,0,1005,4.375777799528055,2
3.206,4473.28,0,0.0,0,1007,4.384197267839675,1
3.211,4504.21,0,0.0,0,1007,4.3785842889652615,2
3.214,4546.75,0,0.0,0,1008,4.3785842889652615,1
3.219,4571.89,0,0.0,0,1011,4.375777799528055,2
3.223,4595.8,0,0.0,0,1009,4.367358331216435,2
3.231,4621.11,0,0.0,0,1012,4.372971310090848,1
3.238,4641.67,0,0.0,0,1008,4.364551841779227,1
3.245,4698.63,0,0.0,0,1011,4.375777799528055,2
3.253,4738.53,0,0.0,0,1010,4.367358331216435,1
3.26,4782.12,0,0.0,0,1009,4.370164820653641,2
3.27,4844.0,0,0.0,0,1009,4.372971310090848,1
3.278,4878.8,0,0.0,0,1008,4.372971310090848,1
3.285,4935.76,0,0.0,0,1011,4.375777799528055,2
3.295,4979.35,0,0.0,0,1006,4.367358331216435,1
3.301,5022.77,0,0.0,0,1008,4.381390778402468,2
3.305,5090.09,0,0.0,0,1009,4.375777799528055,1
3.309,5117.16,0,0.0,0,1003,4.372971310090848,2
3.313,5141.07,0,0.0,0,1009,4.38981024671409,1
3.317,5163.57,0,0.0,0,1009,4.372971310090848,1
3.321,5189.94,0,0.0,0,1005,4.372971310090848,1
3.328,5215.78,0,0.0,0,1008,4.384197267839675,1
3.334,5240.21,0,0.0,0,1008,4.375777799528055,1
3.347,5284.33,0,0.0,0,1010,4.375777799528055,1
3.356,5327.22,0,0.0,0,1008,4.370164820653641,1
3.364,5401.4,0,0.0,0,1010,4.375777799528055,2
3.372,5459.76,0,0.0,0,1009,4.370164820653641,1
3.382,5504.41,0,0.0,0,1008,4.372971310090848,1
3.392,5549.94,0,0.0,0,1005,4.375777799528055,0
3.399,5622.36,0,0.0,0,1008,4.384197267839675,2
3.407,5672.1,0,0.0,0,1011,4.375777799528055,2
3.415,5712.71,0,0.0,0,1009,4.367358331216435,1
3.42,5763.33,0,0.0,0,1012,4.372971310090848,2
3.43,5808.69,0,0.0,0,1006,4.364551841779227,1
3.436,5862.48,0,0.0,0,1008,4.381390778402468,1
3.44,5908.53,0,0.0,0,1009,4.375777799528055,0
3.444,5934.9,0,0.0,0,1005,4.372971310090848,1
3.448,5960.56,0,0.0,0,1008,4.384197267839675,2
3.455,5983.41,0,0.0,0,1007,4.375777799528055,2
3.463,6009.78,0,0.0,0,1009,4.3785842889652615,2
3.473,6055.13,0,0.0,0,1009,4.372971310090848,1
3.482,6101.01,0,0.0,0,1009,4.372971310090848,2
3.489,6169.21,0,0.0,0,1012,4.372971310090848,1
3.493,6218.96,0,0.0,0,1010,4.364551841779227,2
3.497,6257.1,0,0.0,0,1008,4.370164820653641,1
3.509,6281.54,0,0.0,0,1008,4.375777799528055,1
3.515,6320.56,0,0.0,0,1008,4.375777799528055,1
3.525,6381.21,0,0.0,0,1010,4.375777799528055,1
3.53,6423.39,0,0.0,0,1010,4.370164820653641,1
3.534,6484.39,0,0.0,0,1007,4.370164820653641,1
3.538,6502.32,0,0.0,0,1010,4.3785842889652615,1
3.542,6531.32,0,0.0,0,1012,4.370164820653641,1
3.551,6554.7,0,0.0,0,1011,4.364551841779227,1
3.559,6577.55,0,0.0,0,1008,4.367358331216435,1
3.568,6635.03,0,0.0,0,1007,4.375777799528055,1
3.577,6683.02,0,0.0,0,1007,4.3785842889652615,1
3.583,6736.64,0,0.0,0,1010,4.3785842889652615,2
3.587,6796.23,0,0.0,0,1009,4.370164820653641,1
3.591,6826.46,0,0.0,0,1005,4.372971310090848,1
3.598,6852.12,0,0.0,0,1011,4.384197267839675,1
3.606,6876.91,0,0.0,0,1008,4.367358331216435,2
3.616,6923.67,0,0.0,0,1011,4.375777799528055,2
3.625,6969.55,0,0.0,0,1008,4.367358331216435,0
3.632,7036.87,0,0.0,0,1008,4.375777799528055,2
3.637,7088.55,0,0.0,0,1010,4.375777799528055,1
3.641,7121.95,0,0.0,0,1008,4.370164820653641,2
3.647,7149.9,0,0.0,0,1010,4.375777799528055,1
3.655,7174.68,0,0.0,0,1006,4.370164820653641,1
3.665,7216.34,0,0.0,0,1012,4.381390778402468,2
3.673,7260.64,0,0.0,0,1007,4.364551841779227,1
3.677,7327.44,0,0.0,0,1010,4.3785842889652615,1
3.681,7376.3,0,0.0,0,1008,4.370164820653641,1
3.686,7397.4,0,0.0,0,1008,4.375777799528055,1
3.69,7422.18,0,0.0,0,1007,4.375777799528055,1
3.699,7446.79,0,0.0,0,1006,4.3785842889652615,2
3.708,7494.25,0,0.0,0,1007,4.381390778402468,1
3.716,7531.17,0,0.0,0,1010,4.3785842889652615,1
3.728,7593.39,0,0.0,0,1008,4.370164820653641,2
3.738,7650.52,0,0.0,0,1011,4.375777799528055,1
3.745,7713.45,0,0.0,0,1006,4.367358331216435,1
3.755,7764.43,0,0.0,0,1009,4.381390778402468,2
3.764,7811.89,0,0.0,0,1011,4.372971310090848,1
3.767,7879.74,0,0.0,0,1008,4.367358331216435,1
3.772,7920.7,0,0.0,0,1009,4.375777799528055,2
3.776,7942.85,0,0.0,0,1009,4.372971310090848,1
3.78,7967.1,0,0.0,0,1010,4.372971310090848,1
3.784,7992.59,0,0.0,0,1010,4.370164820653641,1
3.793,8017.73,0,0.0,0,1008,4.370164820653641,2
3.801,8042.34,0,0.0,0,1007,4.375777799528055,1
3.812,8105.62,0,0.0,0,1006,4.3785842889652615,1
3.819,8150.09,0,0.0,0,1007,4.381390778402468,2
3.826,8214.6,0,0.0,0,1008,4.3785842889652615,1
3.835,8264.88,0,0.0,0,1007,4.375777799528055,2
3.843,8304.25,0,0.0,0,1009,4.3785842889652615,1
3.854,8359.1,0,0.0,0,1013,4.372971310090848,2
3.862,8401.46,0,0.0,0,1008,4.36174535234202,1
3.865,8479.68,0,0.0,0,1006,4.375777799528055,2
3.871,8510.44,0,0.0,0,1008,4.381390778402468,1
3.874,8537.34,0,0.0,0,1005,4.375777799528055,1
3.878,8564.06,0,0.0,0,1008,4.384197267839675,1
3.886,8586.91,0,0.0,0,1010,4.375777799528055,1
3.895,8611.34,0,0.0,0,1011,4.370164820653641,1
3.905,8667.59,0,0.0,0,1010,4.367358331216435,1
3.916,8720.15,0,0.0,0,1008,4.370164820653641,1
3.927,8792.05,0,0.0,0,1006,4.375777799528055,1
3.933,8849.35,0,0.0,0,1008,4.381390778402468,1
3.94,8913.33,0,0.0,0,1007,4.375777799528055,2
3.949,8943.04,0,0.0,0,1010,4.3785842889652615,1
3.956,8991.38,0,0.0,0,1010,4.370164820653641,1
3.96,9052.03,0,0.0,0,1009,4.370164820653641,2
3.964,9084.55,0,0.0,0,1007,4.372971310090848,1
3.968,9107.92,0,0.0,0,1010,4.3785842889652615,0
3.972,9132.36,0,0.0,0,1006,4.370164820653641,1
3.976,9157.32,0,0.0,0,1006,4.381390778402468,2
3.986,9181.4,0,0.0,0,1006,4.381390778402468,1
3.995,9222.89,0,0.0,0,1010,4.381390778402468,2
4.003,9281.95,0,0.0,0,1007,4.370164820653641,1
4.017,9321.32,0,0.0,0,1008,4.3785842889652615,1
4.026,9390.76,0,0.0,0,1009,4.375777799528055,1
4.036,9459.84,0,0.0,0,1008,4.372971310090848,1
4.043,9519.78,0,0.0,0,1007,4.375777799528055,2
4.051,9574.62,0,0.0,0,1009,4.3785842889652615,1
4.062,9624.37,0,0.0,0,1008,4.372971310090848,2
4.072,9669.9,0,0.0,0,1010,4.375777799528055,1
4.08,9733.18,0,0.0,0,1009,4.370164820653641,1
4.088,9792.59,0,0.0,0,1010,4.372971310090848,1
4.095,9845.85,0,0.0,0,1006,4.370164820653641,0
4.099,9886.81,0,0.0,0,1008,4.381390778402468,1
4.103,9927.94,0,0.0,0,1009,4.375777799528055,1
4.108,9949.74,0,0.0,0,1008,4.372971310090848,2
4.111,9975.41,0,0.0,0,1004,4.375777799528055,1
4.116,10000.54,0,0.0,0,1008,4.387003757276882,1
4.125,10024.45,0,0.0,0,1009,4.375777799528055,1
4.134,10049.58,0,0.0,0,1011,4.372971310090848,1
4.142,10110.93,0,0.0,0,1010,4.367358331216435,1
4.15,10169.82,0,0.0,0,1011,4.370164820653641,2
4.159,10216.4,0,0.0,0,1006,4.367358331216435,0
4.166,10262.98,0,0.0,0,1008,4.381390778402468,1
4.176,10319.94,0,0.0,0,1006,4.375777799528055,1
4.181,10357.03,0,0.0,0,1009,4.381390778402468,1
4.189,10424.53,0,0.0,0,1007,4.372971310090848,1
4.193,10455.46,0,0.0,0,1008,4.3785842889652615,2
4.197,10496.77,0,0.0,0,1010,4.375777799528055,1
4.201,10519.98,0,0.0,0,1006,4.370164820653641,2
4.206,10545.29,0,0.0,0,1009,4.381390778402468,2
4.21,10566.56,0,0.0,0,1008,4.372971310090848,0
4.218,10594.68,0,0.0,0,1008,4.375777799528055,1
4.224,10619.29,0,0.0,0,1007,4.375777799528055,2
4.232,10672.55,0,0.0,0,1008,4.3785842889652615,1
4.242,10712.63,0,0.0,0,1008,4.375777799528055,1
4.252,10770.82,0,0.0,0,1007,4.375777799528055,1
4.26,10825.31,0,0.0,0,1009,4.3785842889652615,1
4.272,10875.93,0,0.0,0,1013,4.372971310090848,1
4.28,10927.79,0,0.0,0,1011,4.36174535234202,1
4.287,11010.93,0,0.0,0,1008,4.367358331216435,1
4.292,11046.62,0,0.0,0,1010,4.375777799528055,1
4.31,11091.44,0,0.0,0,1010,4.370164820653641,0
4.318,11174.94,0,0.0,0,1009,4.370164820653641,2
4.324,11243.84,0,0.0,0,1011,4.372971310090848,1
4.328,11284.1,0,0.0,0,1007,4.367358331216435,0
4.332,11313.63,0,0.0,0,1007,4.3785842889652615,1
4.336,11339.12,0,0.0,0,1007,4.3785842889652615,1
4.346,11362.5,0,0.0,0,1008,4.3785842889652615,1
4.356,11388.51,0,0.0,0,1007,4.375777799528055,1
4.362,11447.4,0,0.0,0,1008,4.3785842889652615,1
4.373,11506.99,0,0.0,0,1006,4.375777799528055,2
4.377,11565.35,0,0.0,0,1010,4.381390778402468,1
4.383,11615.44,0,0.0,0,1008,4.370164820653641,1
4.387,11634.43,0,0.0,0,1006,4.375777799528055,1
4.397,11662.03,0,0.0,0,1007,4.381390778402468,1
4.403,11706.5,0,0.0,0,1008,4.3785842889652615,2
4.413,11757.65,0,0.0,0,1006,4.375777799528055,2
4.418,11810.21,0,0.0,0,1009,4.381390778402468,1
4.422,11863.12,0,0.0,0,1010,4.372971310090848,1
4.427,11884.39,0,0.0,0,1007,4.370164820653641,2
4.431,11906.54,0,0.0,0,1011,4.3785842889652615,2
4.438,11933.96,0,0.0,0,1010,4.367358331216435,1
4.447,11958.57,0,0.0,0,1013,4.370164820653641,2
4.452,12006.21,0,0.0,0,1006,4.36174535234202,0
4.461,12057.18,0,0.0,0,1006,4.381390778402468,1
4.468,12106.75,0,0.0,0,1008,4.381390778402468,1
4.471,12145.78,0,0.0,0,1009,4.375777799528055,2
4.476,12182.87,0,0.0,0,1010,4.372971310090848,1
4.48,12203.43,0,0.0,0,1008,4.370164820653641,1
4.486,12228.22,0,0.0,0,1011,4.375777799528055,1
4.493,12253.53,0,0.0,0,1006,4.367358331216435,1
4.501,12297.12,0,0.0,0,1009,4.381390778402468,2
4.509,12345.46,0,0.0,0,1008,4.372971310090848,1
4.518,12386.42,0,0.0,0,1007,4.375777799528055,1
4.526,12435.46,0,0.0,0,1010,4.3785842889652615,1
4.534,12484.68,0,0.0,0,1006,4.370164820653641,1
4.54,12526.87,0,0.0,0,1008,4.381390778402468,1
4.548,12577.67,0,0.0,0,1007,4.375777799528055,1
4.556,12616.34,0,0.0,0,1012,4.3785842889652615,1
4.562,12662.57,0,0.0,0,1007,4.364551841779227,1
4.566,12725.68,0,0.0,0,1006,4.3785842889652615,1
4.57,12751.34,0,0.0,0,1007,4.381390778402468,0
4.575,12776.66,0,0.0,0,1009,4.3785842889652615,2
4.58,12801.44,0,0.0,0,1009,4.372971310090848,2
4.589,12822.36,0,0.0,0,1008,4.372971310090848,2
4.598,12869.12,0,0.0,0,1009,4.375777799528055,2
4.606,12922.55,0,0.0,0,1010,4.372971310090848,1
4.611,12971.07,0,0.0,0,1008,4.370164820653641,1
4.615,13021.34,0,0.0,0,1011,4.375777799528055,1
4.619,13049.12,0,0.0,0,1008,4.367358331216435,1
4.625,13075.13,0,0.0,0,1007,4.375777799528055,1
4.635,13098.69,0,0.0,0,1009,4.3785842889652615,1
4.642,13143.16,0,0.0,0,1008,4.372971310090848,2
4.65,13198.35,0,0.0,0,1011,4.375777799528055,1
4.656,13246.34,0,0.0,0,1009,4.367358331216435,1
4.66,13290.11,0,0.0,0,1011,4.372971310090848,1
4.664,13320.35,0,0.0,0,1009,4.367358331216435,1
4.673,13347.77,0,0.0,0,1009,4.372971310090848,1
4.679,13371.67,0,0.0,0,1013,4.372971310090848,1
4.687,13423.88,0,0.0,0,1010,4.36174535234202,1
4.694,13460.8,0,0.0,0,1010,4.370164820653641,1
4.702,13513.71,0,0.0,0,1008,4.370164820653641,1
4.709,13562.22,0,0.0,0,1008,4.375777799528055,1
4.713,13602.83,0,0.0,0,1008,4.375777799528055,1
4.721,13643.26,0,0.0,0,1008,4.375777799528055,1
4.728,13668.92,0,0.0,0,1005,4.375777799528055,1
4.738,13716.21,0,0.0,0,1011,4.384197267839675,2
4.748,13759.98,0,0.0,0,1008,4.367358331216435,2
4.755,13829.06,0,0.0,0,1007,4.375777799528055,1
4.759,13881.09,0,0.0,0,1009,4.3785842889652615,1
4.763,13918.18,0,0.0,0,1006,4.372971310090848,2
4.769,13942.08,0,0.0,0,1009,4.381390778402468,2
4.777,13967.57,0,0.0,0,1009,4.372971310090848,1
4.785,14015.03,0,0.0,0,1007,4.372971310090848,1
4.793,14058.98,0,0.0,0,1008,4.3785842889652615,2
4.799,14118.39,0,0.0,0,1014,4.375777799528055,2
4.803,14157.94,0,0.0,0,1010,4.358938862904814,1
4.808,14190.82,0,0.0,0,1010,4.370164820653641,1
4.813,14213.32,0,0.0,0,1006,4.370164820653641,1
4.824,14239.16,0,0.0,0,1009,4.381390778402468,1
4.829,14283.98,0,0.0,0,1009,4.372971310090848,1
4.837,14338.12,0,0.0,0,1006,4.372971310090848,1
4.845,14387.69,0,0.0,0,1010,4.381390778402468,1
4.848,14428.12,0,0.0,0,1008,4.370164820653641,1
4.853,14466.62,0,0.0,0,1006,4.375777799528055,2
4.857,14487.71,0,0.0,0,1010,4.381390778402468,1
4.865,14512.32,0,0.0,0,1009,4.370164820653641,1
4.871,14536.93,0,0.0,0,1007,4.372971310090848,1
4.878,14586.67,0,0.0,0,1008,4.3785842889652615,1
4.886,14631.15,0,0.0,0,1011,4.375777799528055,1
4.894,14669.12,0,0.0,0,1009,4.367358331216435,2
4.902,14730.11,0,0.0,0,1011,4.372971310090848,1
4.906,14770.54,0,0.0,0,1010,4.367358331216435,1
4.913,14810.09,0,0.0,0,1009,4.370164820653641,1
4.921,14834.35,0,0.0,0,1011,4.372971310090848,1
4.927,14880.41,0,0.0,0,1007,4.367358331216435,1
4.935,14927.16,0,0.0,0,1008,4.3785842889652615,2
4.943,14964.08,0,0.0,0,1005,4.375777799528055,1
4.947,15022.08,0,0.0,0,1006,4.384197267839675,2
4.951,15058.65,0,0.0,0,1006,4.381390778402468,2
4.955,15079.57,0,0.0,0,1009,4.381390778402468,1
4.961,15106.64,0,0.0,0,1006,4.372971310090848,2
4.97,15131.07,0,0.0,0,1008,4.381390778402468,2
4.978,15180.99,0,0.0,0,1011,4.375777799528055,2
4.986,15228.8,0,0.0,0,1008,4.367358331216435,1
4.992,15282.94,0,0.0,0,1006,4.375777799528055,2
4.996,15326.54,0,0.0,0,1008,4.381390778402468,1
5.0,15354.49,0,0.0,0,1010,4.375777799528055,2
5.009,15379.98,0,0.0,0,1012,4.370164820653641,2
5.018,15404.06,0,0.0,0,1008,4.364551841779227,1
5.032,15462.07,0,0.0,0,1010,4.375777799528055,1
5.041,15517.08,0,0.0,0,1007,4.370164820653641,1
5.045,15610.42,0,0.0,0,1007,4.3785842889652615,1
5.049,15651.21,0,0.0,0,1006,4.3785842889652615,1
5.056,15678.1,0,0.0,0,1007,4.381390778402468,1
5.063,15701.83,0,0.0,0,1007,4.3785842889652615,1
5.071,15749.64,0,0.0,0,1009,4.3785842889652615,1
5.083,15795.0,0,0.0,0,1009,4.372971310090848,1
5.09,15856.17,0,0.0,0,1012,4.372971310090848,2
5.094,15918.04,0,0.0,0,1013,4.364551841779227,2
5.098,15951.09,0,0.0,0,1006,4.36174535234202,1
5.105,15974.64,0,0.0,0,1006,4.381390778402468,1
5.114,15998.2,0,0.0,0,1008,4.381390778402468,1
5.121,16048.47,0,0.0,0,1007,4.375777799528055,1
5.129,16097.16,0,0.0,0,1005,4.3785842889652615,2
5.135,16139.17,0,0.0,0,1011,4.384197267839675,1
5.139,16189.1,0,0.0,0,1005,4.367358331216435,1
5.144,16222.85,0,0.0,0,1010,4.384197267839675,2
5.148,16246.75,0,0.0,0,1008,4.370164820653641,1
5.159,16271.19,0,0.0,0,1005,4.375777799528055,2
5.166,16315.31,0,0.0,0,1009,4.384197267839675,1
5.177,16371.91,0,0.0,0,1008,4.372971310090848,1
5.188,16413.92,0,0.0,0,1007,4.375777799528055,1
5.193,16485.99,0,0.0,0,1009,4.3785842889652615,1
5.202,16544.7,0,0.0,0,1007,4.372971310090848,1
5.215,16583.02,0,0.0,0,1012,4.3785842889652615,2
5.221,16650.0,0,0.0,0,1011,4.364551841779227,2
5.225,16711.87,0,0.0,0,1007,4.367358331216435,1
5.229,16744.74,0,0.0,0,1007,4.3785842889652615,1
5.233,16768.12,0,0.0,0,1008,4.3785842889652615,1
5.238,16793.08,0,0.0,0,1008,4.375777799528055,1
5.242,16815.93,0,0.0,0,1012,4.375777799528055,1
5.25,16841.6,0,0.0,0,1010,4.364551841779227,1
5.259,16865.85,0,0.0,0,1009,4.370164820653641,1
5.269,16922.1,0,0.0,0,1008,4.372971310090848,1
5.279,16973.61,0,0.0,0,1011,4.375777799528055,1
5.289,17047.61,0,0.0,0,1010,4.367358331216435,1
5.297,17105.8,0,0.0,0,1007,4.370164820653641,2
5.307,17157.65,0,0.0,0,1006,4.3785842889652615,0
5.315,17203.18,0,0.0,0,1008,4.381390778402468,1
5.32,17276.13,0,0.0,0,1008,4.375777799528055,2
5.324,17313.04,0,0.0,0,1008,4.375777799528055,1
5.334,17338.88,0,0.0,0,1011,4.375777799528055,2
5.341,17382.12,0,0.0,0,1008,4.367358331216435,1
5.349,17426.6,0,0.0,0,1007,4.375777799528055,1
5.36,17470.54,0,0.0,0,1006,4.3785842889652615,1
5.365,17542.61,0,0.0,0,1009,4.381390778402468,2
5.369,17586.38,0,0.0,0,1009,4.372971310090848,1
5.377,17609.94,0,0.0,0,1010,4.372971310090848,1
5.387,17635.78,0,0.0,0,1008,4.370164820653641,2
5.396,17696.95,0,0.0,0,1010,4.375777799528055,2
