time,motor_angle,motor_setpoint,pendulum_angle,pendulum_setpoint,rpm,voltage,current,e_speed,e_angle,setSpeed,setAngle
1.342,0.0,0,0.0,0,0,0,0,0.0,0.0,1999.9999999999998,90.0
2.547,0.0,90.0,0.0,0,0,0,0,40204.767493602674,0.0,1999.9999999999998,90.0
2.552,0.0,90.0,0.0,0,0,14.96476070218552,0,-942851.9613530671,290690.74546970613,1999.9999999999998,90.0
2.555,0.0,90.0,0.0,0,0,-20,0,-1737304.2285243312,169423.8465154969,1999.9999999999998,90.0
2.561,1.75,90.0,0.0,0,89,20,403,-1970350.4227447957,101801.73806661325,1999.9999999999998,90.0
2.568,2.63,90.0,0.0,0,43,20,433,-2139181.8002935783,-10580.50098350176,1999.9999999999998,90.0
2.572,7.38,90.0,0.0,0,186,20,405,-1793676.1465908955,-97609.11645125473,1999.9999999999998,90.0
2.58,20.21,90.0,0.0,0,388,20,378,-1315991.999197766,-116457.26226067157,1999.9999999999998,90.0
2.584,33.92,90.0,0.0,0,525,20,362,-640645.9231127356,-114287.53863569179,1999.9999999999998,90.0
2.588,58.53,90.0,0.0,0,700,20,344,-279683.29720485525,-96737.9918067854,1999.9999999999998,90.0
2.593,77.34,90.0,0.0,0,800,20,329,18044.42922633809,-74352.46878607142,1999.9999999999998,90.0
2.603,99.49,90.0,0.0,0,896,20,317,280027.7462458848,-45238.36049562814,1999.9999999999998,90.0
2.613,131.13,90.0,0.0,0,1014,20,302,501690.1111319084,-456.04733391388163,1999.9999999999998,90.0
2.62,192.48,90.0,0.0,0,1211,-20,279,403120.1467990299,31933.229602572716,1999.9999999999998,90.0
2.625,276.67,90.0,0.0,0,1414,-20,250,207959.4855885083,33155.404377885134,1999.9999999999998,90.0
2.633,327.12,90.0,0.0,0,1150,-20,580,13624.86644567301,24972.51707650916,1999.9999999999998,90.0
2.641,373.18,90.0,0.0,0,852,-20,544,-107232.45979588595,12741.950668179648,1999.9999999999998,90.0
2.651,404.64,90.0,0.0,0,584,-20,508,-156670.90777809254,176.19552135601512,1999.9999999999998,90.0
2.658,426.09000000000003,90.0,0.0,0,294,20,471,-131693.75492393892,-7036.716240379593,1999.9999999999998,90.0
2.662,433.65,90.0,0.0,0,86,20,439,-79192.04015623275,-8895.82402156271,1999.9999999999998,90.0
2.666,440.15,90.0,0.0,0,209,20,401,-53433.74539602452,-8278.413031791682,1999.9999999999998,90.0
2.671,445.6,90.0,0.0,0,301,20,389,-24545.618071892954,-7018.071388223682,1999.9999999999998,90.0
2.679,455.09000000000003,90.0,0.0,0,421,20,390,16552.44657658043,-4120.834725875138,1999.9999999999998,90.0
2.686,479.53,90.0,0.0,0,625,20,350,31717.23172348358,-1679.1646461949283,1999.9999999999998,90.0
2.695,503.61,90.0,0.0,0,764,-20,333,37752.48809683213,1059.5465169784145,1999.9999999999998,90.0
2.699,544.92,90.0,0.0,0,947,-20,312,29002.986710593214,2507.8562390956217,1999.9999999999998,90.0
2.705,582.1800000000001,90.0,0.0,0,686,-20,521,21485.67423889746,2649.5841922066597,1999.9999999999998,90.0
2.711,596.77,90.0,0.0,0,546,-20,504,9355.21758179108,2535.285762138291,1999.9999999999998,90.0
2.715,613.8199999999999,90.0,0.0,0,315,-20,473,941.2690510133364,2079.1078534692106,1999.9999999999998,90.0
2.719,621.03,90.0,0.0,0,145,-20,450,-2883.3529217268133,1711.8547733668588,1999.9999999999998,90.0
2.73,622.44,90.0,0.0,0,65,-20,435,-6257.442483912453,1191.816361023723,1999.9999999999998,90.0
2.737,619.8,90.0,0.0,0,-149,20,414,-8229.242869936392,451.09135442272037,1999.9999999999998,90.0
2.744,602.92,90.0,0.0,0,-427,20,380,-6164.94776562837,203.46984352620473,1999.9999999999998,90.0
2.751,591.5,90.0,0.0,0,-230,20,454,-3177.98515681671,141.399203857124,1999.9999999999998,90.0
2.757,586.58,90.0,0.0,0,-73,20,428,-488.2415536007104,227.02642183220195,1999.9999999999998,90.0
2.764,590.44,90.0,0.0,0,176,20,403,1356.9277556164218,370.69613510269625,1999.9999999999998,90.0
2.77,601.52,90.0,0.0,0,375,20,380,2085.0394908026883,548.3755629803192,1999.9999999999998,90.0
2.777,622.96,90.0,0.0,0,580,-9.176547263629562,356,1721.6996171098697,667.1280985844485,1999.9999999999998,90.0
2.782,652.5,90.0,0.0,0,757,-20,335,1186.9010970502156,703.429682392269,1999.9999999999998,90.0
2.789,673.24,90.0,0.0,0,657,-20,338,660.3743689580967,723.3696851934055,1999.9999999999998,90.0
2.793,691.52,90.0,0.0,0,450,-16.71968943457611,490,212.35388137656696,726.295494571205,1999.9999999999998,90.0
2.798,705.4100000000001,90.0,0.0,0,231,-8.803212089090977,460,97.2234643397714,721.7804154867026,1999.9999999999998,90.0
2.805,709.1,90.0,0.0,0,125,-1.50495223138984,445,37.93363602808265,718.9884538443479,1999.9999999999998,90.0
2.809,710.6800000000001,90.0,0.0,0,55,0.17732943803984114,244,2.7095429026962483,716.0101041979349,1999.9999999999998,90.0
2.815,710.3299999999999,90.0,0.0,0,-31,0.7272892977098664,36,-2.8428441912370164,714.3989997347043,1999.9999999999998,90.0
2.821,709.98,90.0,0.0,0,-14,1.0303636791400663,2,-11.979495503523964,712.2930657486868,1999.9999999999998,90.0
2.826,709.45,90.0,0.0,0,-14,0.5761813154756652,18,-15.62117033091235,710.9256658847453,1999.9999999999998,90.0
2.831,709.45,90.0,0.0,0,9,0.29391136138644214,24,-18.037936360862922,710.0994648001931,1999.9999999999998,90.0
2.837,709.62,90.0,0.0,0,7,0.03782633192564688,10,-25.602601347023338,709.0628275612712,1999.9999999999998,90.0
2.842,709.8,90.0,0.0,0,7,-0.47133662791791764,4,-29.128949752592984,708.5182374929226,1999.9999999999998,90.0
2.848,710.15,90.0,0.0,0,7,-0.7180826006153502,0,-32.45120921137254,708.1716019329256,1999.9999999999998,90.0
2.854,710.3299999999999,90.0,0.0,0,7,-0.9919682478649179,10,-42.07289799074407,707.7985063270892,1999.9999999999998,90.0
2.859,710.3299999999999,90.0,0.0,0,7,-1.500915228796675,16,-52.678089336603534,707.3320073961502,1999.9999999999998,90.0
2.868,710.15,90.0,0.0,0,-7,-1.862075555500116,21,-66.36434063185501,706.6224706305111,1999.9999999999998,90.0
2.874,709.27,90.0,0.0,0,-7,-2.24300401189722,32,-78.40465610029483,705.7166092391739,1999.9999999999998,90.0
2.88,708.04,90.0,0.0,0,-33,-2.5024516716275382,38,-94.50255707559143,704.275361456487,1999.9999999999998,90.0
2.888,705.76,90.0,0.0,0,-56,-2.825653533340086,44,-111.10417918000073,702.3000505905967,1999.9999999999998,90.0
2.895,702.77,90.0,0.0,0,-83,-3.06245927422348,50,-136.52551968725595,698.9024674494806,1999.9999999999998,90.0
2.899,697.85,90.0,0.0,0,-115,-3.399313731372404,55,-152.15661025078114,695.3828182521266,1999.9999999999998,90.0
2.903,692.75,90.0,0.0,0,-146,-3.4077025261767826,59,-163.7180009795574,692.4882533742559,1999.9999999999998,90.0
2.907,689.06,90.0,0.0,0,-158,-3.3679702790913844,66,-180.76459916897846,688.6506644976348,1999.9999999999998,90.0
2.913,684.8399999999999,90.0,0.0,0,-179,-3.4191743381114303,64,-195.96349870078416,684.3363188022768,1999.9999999999998,90.0
2.92,680.0899999999999,90.0,0.0,0,-201,-3.3566083761835337,61,-217.98147539604818,677.4087153072602,1999.9999999999998,90.0
2.925,672.36,90.0,0.0,0,-224,-3.472807788510927,60,-231.40334428503442,669.2094443711422,1999.9999999999998,90.0
2.931,661.64,90.0,0.0,0,-255,-3.4953341732216003,53,-235.77706337891172,664.1886415863833,1999.9999999999998,90.0
2.936,654.96,90.0,0.0,0,-273,-3.3819558644990444,56,-273.8245661463029,652.9720771504611,1999.9999999999998,90.0
2.943,642.8299999999999,90.0,0.0,0,-296,-3.723959959666715,53,-274.9472680966413,646.8863838467618,1999.9999999999998,90.0
2.95,635.44,90.0,0.0,0,-310,-3.0743928214887095,47,-313.1445472486648,632.2890091033942,1999.9999999999998,90.0
2.957,620.5,90.0,0.0,0,-340,-3.4651096738784144,54,-302.3608108672113,621.1894676513391,1999.9999999999998,90.0
2.963,606.44,90.0,0.0,0,-357,-2.9062094196314323,32,-315.0871430623183,608.8128093266112,1999.9999999999998,90.0
2.969,591.85,90.0,0.0,0,-375,-3.272221190653134,42,-332.2143981229961,595.1487424387803,1999.9999999999998,90.0
2.976,576.56,90.0,0.0,0,-387,-3.1868005054395177,24,-344.87709614856897,582.5593862656299,1999.9999999999998,90.0
2.983,563.2,90.0,0.0,0,-401,-2.909470822989624,33,-378.6065820655879,560.6073644219581,1999.9999999999998,90.0
2.99,541.58,90.0,0.0,0,-418,-2.942051462507843,28,-357.0832926807485,550.2405929429005,1999.9999999999998,90.0
2.995,529.1,90.0,0.0,0,-426,-2.0797747400661466,19,-390.267473079289,530.4494177595915,1999.9999999999998,90.0
3.001,510.46000000000004,90.0,0.0,0,-436,-2.620346346120197,18,-375.2715229254136,515.4482446242547,1999.9999999999998,90.0
3.008,494.47,90.0,0.0,0,-433,-1.8783986602104727,2,-378.06124466300355,502.1618261579534,1999.9999999999998,90.0
3.014,480.93,90.0,0.0,0,-437,-2.0231411405010693,11,-392.7828099416263,483.2370088291787,1999.9999999999998,90.0
3.018,463.18,90.0,0.0,0,-440,-1.9917159724240978,1,-376.23783124768397,466.8510258478541,1999.9999999999998,90.0
3.022,446.13,90.0,0.0,0,-438,-1.570244422550224,1,-371.14176137516466,456.37820949618555,1999.9999999999998,90.0
3.028,435.23,90.0,0.0,0,-441,-1.620800929342317,0,-382.37427161134514,445.7641752840187,1999.9999999999998,90.0
3.034,425.74,90.0,0.0,0,-434,-1.602199730044937,6,-402.18173564306574,424.1826004841634,1999.9999999999998,90.0
3.04,407.28,90.0,0.0,0,-436,-1.4648277882552696,5,-368.51323186079014,413.20849168463184,1999.9999999999998,90.0
3.047,394.8,90.0,0.0,0,-433,-0.7502123910760541,5,-366.6834702716183,396.29521320443445,1999.9999999999998,90.0
3.056,378.28,90.0,0.0,0,-424,-1.3143120320581057,7,-339.8718110125564,377.87069257736255,1999.9999999999998,90.0
3.063,357.89,90.0,0.0,0,-414,-1.2179141508978377,16,-312.8494647175403,362.3652535465395,1999.9999999999998,90.0
3.067,338.9,90.0,0.0,0,-408,-1.4788712371953934,9,-319.3427610746309,346.4231732794358,1999.9999999999998,90.0
3.072,321.15,90.0,0.0,0,-403,-1.7905622129697525,10,-325.0521293079743,338.60352356203225,1999.9999999999998,90.0
3.08,313.41,90.0,0.0,0,-400,-1.3537492075073163,5,-369.8869266058098,320.5221118988757,1999.9999999999998,90.0
3.085,299.7,90.0,0.0,0,-401,-1.2349367128441218,0,-354.840092099386,300.0786978623244,1999.9999999999998,90.0
3.092,281.77,90.0,0.0,0,-398,-0.20470599318965998,7,-315.6056383846653,286.8284057075052,1999.9999999999998,90.0
3.096,267.18,90.0,0.0,0,-395,-0.08000382270232054,9,-306.91412266855554,274.1968038673144,1999.9999999999998,90.0
3.1,254.0,90.0,0.0,0,-385,-0.5435402655730721,19,-305.6710335326973,265.4276609305432,1999.9999999999998,90.0
3.105,245.39,90.0,0.0,0,-374,-0.441412080543357,35,-315.842727348612,253.83847256671734,1999.9999999999998,90.0
3.113,235.54,90.0,0.0,0,-369,-0.3278998742026522,16,-312.04538914564546,238.054979278896,1999.9999999999998,90.0
3.12,221.83,90.0,0.0,0,-361,0.02270481992568696,16,-276.98059588906614,223.35613246213865,1999.9999999999998,90.0
3.128,206.54,90.0,0.0,0,-349,0.24470130199396856,15,-244.06561403312563,209.11511529196852,1999.9999999999998,90.0
3.136,190.01,90.0,0.0,0,-327,-0.10295769493250151,40,-229.90275649203485,198.24046377602932,1999.9999999999998,90.0
3.141,177.36,90.0,0.0,0,-309,-0.38682320163114126,39,-246.48121244805697,181.7670881787376,1999.9999999999998,90.0
3.146,162.24,90.0,0.0,0,-291,-0.4571308755922421,22,-235.54607809629888,173.42653396563432,1999.9999999999998,90.0
3.154,154.33,90.0,0.0,0,-285,0.22174342857176121,11,-248.62273868756267,161.1016381650167,1999.9999999999998,90.0
3.161,144.84,90.0,0.0,0,-280,0.19829812658355372,11,-233.94120953198217,145.6772153895243,1999.9999999999998,90.0
3.168,131.83,90.0,0.0,0,-261,0.6852450901538556,34,-197.69018110986846,136.43234862558828,1999.9999999999998,90.0
3.174,122.51,90.0,0.0,0,-244,0.8075593349500708,30,-185.90647332768557,125.71534426578629,1999.9999999999998,90.0
3.181,112.5,90.0,0.0,0,-224,0.391992683844529,42,-168.99418695280016,116.54689553135893,1999.9999999999998,90.0
3.186,103.88,90.0,0.0,0,-201,0.4497867727083422,42,-159.1947410623013,107.82058162017553,1999.9999999999998,90.0
3.19,96.15,90.0,0.0,0,-186,0.38582154514277867,29,-151.35737986771778,101.24107545387025,1999.9999999999998,90.0
3.194,90.52,90.0,0.0,0,-173,0.44360551122234093,30,-148.88388487690403,96.46794706954742,1999.9999999999998,90.0
3.2,86.66,90.0,0.0,0,-161,0.4834823195928514,26,-148.10476761554025,92.21358922287513,1999.9999999999998,90.0
3.206,83.67,90.0,0.0,0,-157,0.5690519245864973,28,-142.63521230924482,82.30800284644523,1999.9999999999998,90.0
3.211,76.81,90.0,0.0,0,-140,0.6700772194932634,26,-113.68064285101006,78.32333472853057,1999.9999999999998,90.0
3.214,72.77,90.0,0.0,0,-128,0.8533900095671906,27,-104.1983749415828,74.98401610626658,1999.9999999999998,90.0
3.222,69.6,90.0,0.0,0,-119,0.47109172338736893,29,-96.81005023679752,71.04382670854706,1999.9999999999998,90.0
3.227,66.26,90.0,0.0,0,-105,0.40992364952232485,32,-84.48004664559426,66.42545444363222,1999.9999999999998,90.0
3.231,62.22,90.0,0.0,0,-93,0.408517306816758,20,-75.95680209129243,64.46758665733786,1999.9999999999998,90.0
3.239,60.29,90.0,0.0,0,-89,0.3352632391656243,18,-72.92068647250106,61.19932424757429,1999.9999999999998,90.0
3.245,57.65,90.0,0.0,0,-80,0.2609434076979893,17,-61.834451058133986,57.56921134536741,1999.9999999999998,90.0
3.251,54.49,90.0,0.0,0,-69,0.3270365951523977,13,-51.6037880238051,55.51402213506956,1999.9999999999998,90.0
3.255,52.2,90.0,0.0,0,-64,0.26090872817051225,10,-47.164885994840496,53.09995217900353,1999.9999999999998,90.0
3.259,49.92,90.0,0.0,0,-57,0.1711595359861724,12,-44.14345320253977,51.65097590809523,1999.9999999999998,90.0
3.264,48.69,90.0,0.0,0,-53,0.18221918696415573,9,-43.55975074216333,50.072116212372414,1999.9999999999998,90.0
3.272,47.46,90.0,0.0,0,-50,0.19148153099962983,5,-40.40398151728005,47.84666285043331,1999.9999999999998,90.0
3.278,45.52,90.0,0.0,0,-47,0.2588032791638638,4,-32.48150029092182,46.06277178026926,1999.9999999999998,90.0
3.284,43.94,90.0,0.0,0,-43,0.30388677485990767,4,-27.994008858356736,44.79122131076499,1999.9999999999998,90.0
3.288,42.53,90.0,0.0,0,-40,0.24939348952688944,7,-24.52395173281214,43.302942632600434,1999.9999999999998,90.0
3.296,41.13,90.0,0.0,0,-34,0.24759569654564217,8,-22.46534378865923,42.51899466403455,1999.9999999999998,90.0
3.301,40.42,90.0,0.0,0,-32,0.2536576326925506,6,-20.903590753541117,40.519533770480955,1999.9999999999998,90.0
3.31,39.02,90.0,0.0,0,-26,0.29578000622740275,6,-14.927684950697707,39.82201162049153,1999.9999999999998,90.0
3.316,38.14,90.0,0.0,0,-23,0.359598356445868,5,-10.930130227578807,38.65022729515725,1999.9999999999998,90.0
3.321,37.26,90.0,0.0,0,-20,0.33115179422702856,7,-6.8499373159921975,37.99441909163225,1999.9999999999998,90.0
3.328,36.73,90.0,0.0,0,-15,0.340056845723272,7,-5.206315847244028,37.57401720447147,1999.9999999999998,90.0
3.334,36.56,90.0,0.0,0,-15,0.32014915596781246,7,-2.943964701047753,36.955425688396716,1999.9999999999998,90.0
3.341,36.38,90.0,0.0,0,-8,0.3524770674404264,6,1.5102887849355426,36.64042910406055,1999.9999999999998,90.0
3.348,36.21,90.0,0.0,0,-7,0.3809011946296814,5,5.782900498491076,36.57515103451691,1999.9999999999998,90.0
3.354,36.38,90.0,0.0,0,7,0.36423123701169646,5,8.51947439264695,36.63480614969995,1999.9999999999998,90.0
3.359,36.56,90.0,0.0,0,6,0.3415517522835807,6,10.82841471881761,36.820533646328705,1999.9999999999998,90.0
3.367,36.73,90.0,0.0,0,5,0.3339173601034924,5,12.802933711468647,37.07988846662839,1999.9999999999998,90.0
3.375,37.08,90.0,0.0,0,5,0.32976392647364716,4,15.081185711217971,37.48539760759635,1999.9999999999998,90.0
3.378,37.61,90.0,0.0,0,9,0.3452392079677795,4,16.86034503700776,37.970727766479506,1999.9999999999998,90.0
3.386,38.32,90.0,0.0,0,12,0.35150074386836905,4,17.7745440964818,38.32085061188447,1999.9999999999998,90.0
3.391,38.67,90.0,0.0,0,12,0.3406216637503596,4,20.77248051069268,39.013820665098734,1999.9999999999998,90.0
3.399,39.37,90.0,0.0,0,15,0.3614504787777746,4,21.58841282295847,39.67010760278155,1999.9999999999998,90.0
3.405,40.07,90.0,0.0,0,16,0.33663697136153625,3,22.6877019376316,40.38183599778333,1999.9999999999998,90.0
3.411,40.95,90.0,0.0,0,20,0.3500137116827373,4,23.87647805534049,41.21215031856024,1999.9999999999998,90.0
3.415,41.83,90.0,0.0,0,21,0.3611701465531183,3,24.534110410846463,41.77942873528534,1999.9999999999998,90.0
3.419,42.53,90.0,0.0,0,22,0.34840115121000115,3,25.783938669732496,42.34750474513991,1999.9999999999998,90.0
3.424,43.06,90.0,0.0,0,23,0.34647722386823143,4,27.328358415661747,43.043645868424406,1999.9999999999998,90.0
3.428,43.59,90.0,0.0,0,23,0.33657168796900616,3,28.289287225048163,43.833579671136576,1999.9999999999998,90.0
3.437,44.47,90.0,0.0,0,25,0.3217466290503215,3,28.284683908690987,44.603295942003186,1999.9999999999998,90.0
3.444,45.17,90.0,0.0,0,26,0.315535290874736,3,29.475254288117586,45.95492884306554,1999.9999999999998,90.0
3.448,46.58,90.0,0.0,0,28,0.34709461372558104,3,27.108157496590447,46.7969898449414,1999.9999999999998,90.0
3.456,47.81,90.0,0.0,0,28,0.33146534810755024,2,27.657962445884852,47.305874270982095,1999.9999999999998,90.0
3.461,48.51,90.0,0.0,0,29,0.36961011333799765,2,33.077171066626256,48.930973576730196,1999.9999999999998,90.0
3.469,49.92,90.0,0.0,0,30,0.3934930571275099,2,31.489455755204027,49.934023092919716,1999.9999999999998,90.0
3.474,51.15,90.0,0.0,0,32,0.289135526976096,3,32.404198041856844,51.35620425863847,1999.9999999999998,90.0
3.481,52.73,90.0,0.0,0,33,0.3306029723780821,3,31.967734820973128,52.508897275117725,1999.9999999999998,90.0
3.487,53.96,90.0,0.0,0,34,0.3098500372708539,1,33.01775138455876,53.498757613925996,1999.9999999999998,90.0
3.494,55.01,90.0,0.0,0,35,0.31031186651939935,2,35.403186357573645,55.13983878452266,1999.9999999999998,90.0
3.503,56.6,90.0,0.0,0,36,0.3007539695660202,1,33.82571176170033,56.69873902442799,1999.9999999999998,90.0
3.51,58.18,90.0,0.0,0,36,0.2513827081886246,1,32.96909242798015,58.192911155337285,1999.9999999999998,90.0
3.513,59.94,90.0,0.0,0,37,0.27063984051689527,1,32.74665942010158,59.51367283818576,1999.9999999999998,90.0
3.52,61.52,90.0,0.0,0,37,0.2736925421435732,0,33.541528260260975,60.334812806902264,1999.9999999999998,90.0
3.526,62.22,90.0,0.0,0,37,0.25644988159666005,1,38.10772802310667,62.249447717943504,1999.9999999999998,90.0
3.534,63.8,90.0,0.0,0,37,0.24762380780992466,1,35.08482934140543,63.83287701844373,1999.9999999999998,90.0
3.539,65.39,90.0,0.0,0,37,0.14310730666648253,0,33.060527075066005,65.21613273879603,1999.9999999999998,90.0
3.542,66.79,90.0,0.0,0,37,0.17557651068786617,0,32.55114187598246,66.30011730558009,1999.9999999999998,90.0
3.546,68.02,90.0,0.0,0,37,0.1899832931248726,2,32.922867605313556,67.17382200879833,1999.9999999999998,90.0
3.552,68.9,90.0,0.0,0,36,0.18137508324615625,1,33.926081714502544,68.09386554003474,1999.9999999999998,90.0
3.56,69.6,90.0,0.0,0,35,0.1622101383638963,1,35.278388970321494,69.9610126324333,1999.9999999999998,90.0
3.568,71.01,90.0,0.0,0,34,0.14126562379952512,1,30.45931866508681,71.20133958176069,1999.9999999999998,90.0
3.572,72.42,90.0,0.0,0,32,0.08507458863797446,1,27.660613373606534,72.48850344727347,1999.9999999999998,90.0
3.579,73.82,90.0,0.0,0,31,0.153639109050824,2,26.788120330166713,73.27080751535566,1999.9999999999998,90.0
3.584,74.7,90.0,0.0,0,29,0.17817137141279416,2,28.427428574378844,74.53811465583703,1999.9999999999998,90.0
3.592,75.76,90.0,0.0,0,28,0.18632285242592062,1,27.498215136313654,75.80961550757208,1999.9999999999998,90.0
3.598,76.81,90.0,0.0,0,26,0.13815761462910814,1,25.770163047200253,76.85439411311545,1999.9999999999998,90.0
3.604,77.87,90.0,0.0,0,26,0.13186763189716322,1,24.366997913757615,77.91711362849004,1999.9999999999998,90.0
3.608,78.92,90.0,0.0,0,24,0.14561100142701866,2,23.52990445357288,78.63076344028086,1999.9999999999998,90.0
3.616,79.62,90.0,0.0,0,23,0.14888872925547947,1,23.756430110361695,79.16960407220009,1999.9999999999998,90.0
3.624,79.98,90.0,0.0,0,23,0.14891934783671967,1,25.276356259599726,80.83782709512025,1999.9999999999998,90.0
3.63,81.21,90.0,0.0,0,20,0.14447174154968678,1,19.37249136702175,81.46013006920934,1999.9999999999998,90.0
3.636,82.08,90.0,0.0,0,19,0.0811093967609473,1,18.381334493582102,82.11295827535655,1999.9999999999998,90.0
3.64,82.79,90.0,0.0,0,18,0.17343917726547664,1,18.515943230533118,82.74160824395209,1999.9999999999998,90.0
