time,motor_angle,motor_setpoint,pendulum_angle,pendulum_setpoint,rpm,voltage,current,e_speed,e_angle,setSpeed,setAngle
1.504,0.0,0,0.0,0,0,0,0,0.0,0.0,1999.9999999999998,90.0
2.715,0.0,90.0,0.0,0,0,0,0,68822.66344443534,0.0,1999.9999999999998,90.0
2.723,0.0,90.0,0.0,0,0,24,0,-779383.4633910537,499369.996238817,1999.9999999999998,90.0
2.733,0.0,90.0,0.0,0,0,-24,0,-3978404.2728224434,98310.50287854296,1999.9999999999998,90.0
2.738,8.78,90.0,0.0,0,271,-24,391,-4216654.707016647,-177551.50606802097,1999.9999999999998,90.0
2.747,14.94,90.0,0.0,0,48,24,434,-3312393.7504197964,-251756.77050332678,1999.9999999999998,90.0
2.755,12.48,90.0,0.0,0,-149,24,421,-1723982.5314302752,-268850.75008552935,1999.9999999999998,90.0
2.76,11.77,90.0,0.0,0,18,24,417,-274460.2464810639,-203558.74658674336,1999.9999999999998,90.0
2.779,19.68,90.0,0.0,0,269,24,391,1493989.702628179,-37428.851637113396,1999.9999999999998,90.0
2.785,55.89,90.0,0.0,0,632,24,357,1610211.3720793643,93478.4734396003,1999.9999999999998,90.0
2.791,107.75,90.0,0.0,0,897,-24,314,1208695.4455978572,109650.15795808325,1999.9999999999998,90.0
2.8,137.81,90.0,0.0,0,1014,-24,301,626485.0969747837,106281.16240722983,1999.9999999999998,90.0
2.808,173.49,90.0,0.0,0,773,-24,551,-191671.4922056784,65660.97619836748,1999.9999999999998,90.0
2.813,210.93,90.0,0.0,0,391,-24,480,-440118.24513795925,30652.485370065464,1999.9999999999998,90.0
2.821,221.13,90.0,0.0,0,192,-24,456,-510786.2569894392,9037.984017471832,1999.9999999999998,90.0
2.829,224.12,90.0,0.0,0,80,24,438,-518219.1827938978,-21831.889908157144,1999.9999999999998,90.0
2.838,219.72,90.0,0.0,0,-192,24,407,-370657.4824936195,-33689.78672378968,1999.9999999999998,90.0
2.85,217.08,90.0,0.0,0,-30,24,424,-36985.54744858677,-31486.10123427507,1999.9999999999998,90.0
2.86,232.2,90.0,0.0,0,365,24,379,141712.85611184637,-14398.81905270157,1999.9999999999998,90.0
2.865,256.99,90.0,0.0,0,595,24,352,221344.24155562633,3748.982993155878,1999.9999999999998,90.0
2.874,298.3,90.0,0.0,0,829,24,325,194128.78942077124,10580.510617382726,1999.9999999999998,90.0
2.883,332.57,90.0,0.0,0,970,24,309,115657.47658959782,14642.301403375777,1999.9999999999998,90.0
2.89,391.99,90.0,0.0,0,1171,24,282,43593.096242805856,12445.754679513771,1999.9999999999998,90.0
2.901,443.67,90.0,0.0,0,1309,24,265,-35707.17700879942,6761.095851085883,1999.9999999999998,90.0
2.909,524.35,90.0,0.0,0,1481,24,245,-67619.37034371392,1115.0173469593622,1999.9999999999998,90.0
2.916,604.6800000000001,90.0,0.0,0,1629,24,226,-64871.90145414954,-2918.1822906749917,1999.9999999999998,90.0
2.923,696.0899999999999,90.0,0.0,0,1767,24,209,-46646.527819147894,-3783.139740283655,1999.9999999999998,90.0
2.927,762.18,90.0,0.0,0,1853,24,199,-23353.86692740085,-3535.6512869737635,1999.9999999999998,90.0
2.931,840.05,90.0,0.0,0,1951,24,187,-10371.95867111613,-2846.898069788747,1999.9999999999998,90.0
2.937,890.33,90.0,0.0,0,2007,24,181,-930.9091916045007,-2115.509464566697,1999.9999999999998,90.0
2.946,935.15,90.0,0.0,0,2047,24,172,11926.006394609196,-802.4686242121667,1999.9999999999998,90.0
2.956,1014.96,90.0,0.0,0,2128,24,171,24154.564959288917,1407.8662314821163,1999.9999999999998,90.0
2.964,1164.72,90.0,0.0,0,2259,24,148,20786.349325174713,2324.9048732222263,1999.9999999999998,90.0
2.968,1272.3,90.0,0.0,0,2336,24,140,13901.240072978628,2652.8384959397195,1999.9999999999998,90.0
2.972,1381.99,90.0,0.0,0,2402,24,131,9993.979981450517,2596.773505882001,1999.9999999999998,90.0
2.976,1438.94,90.0,0.0,0,2440,24,126,6542.24465421014,2489.9775070935952,1999.9999999999998,90.0
2.982,1499.94,90.0,0.0,0,2484,24,122,3938.467977433597,2358.897341849336,1999.9999999999998,90.0
2.991,1556.19,90.0,0.0,0,2514,24,117,793.7345756007696,2145.0564810904457,1999.9999999999998,90.0
3.001,1644.08,90.0,0.0,0,2568,24,113,-3268.12018326865,1703.1729169021162,1999.9999999999998,90.0
3.009,1832.34,90.0,0.0,0,2637,24,102,-2775.526638976842,1445.8903782201144,1999.9999999999998,90.0
3.018,2007.24,90.0,0.0,0,2730,24,93,-870.787239272003,1506.929493850217,1999.9999999999998,90.0
3.025,2100.76,90.0,0.0,0,2767,24,88,2092.8412291021023,1736.8459243947539,1999.9999999999998,90.0
3.029,2229.78,90.0,0.0,0,2806,24,82,4162.0169932771805,2028.88220689113,1999.9999999999998,90.0
3.04,2358.63,90.0,0.0,0,2851,24,77,4779.592977684403,2195.4669704348385,1999.9999999999998,90.0
3.048,2431.58,90.0,0.0,0,2870,24,74,5867.20212077673,2576.535402659791,1999.9999999999998,90.0
3.055,2595.93,90.0,0.0,0,2918,24,67,5054.337264958856,2786.875580358755,1999.9999999999998,90.0
3.062,2745.87,90.0,0.0,0,2953,24,65,4113.423700608743,2920.264325506651,1999.9999999999998,90.0
3.071,2886.15,90.0,0.0,0,2999,24,60,3369.3739884045435,3013.0630154144333,1999.9999999999998,90.0
3.081,3021.85,90.0,0.0,0,3018,24,56,2848.4518316752515,3108.8703119522543,1999.9999999999998,90.0
3.089,3176.54,90.0,0.0,0,3053,24,52,2566.291535225837,3210.869479856297,1999.9999999999998,90.0
3.096,3348.8,90.0,0.0,0,3098,24,49,2628.619079222639,3330.8626360885323,1999.9999999999998,90.0
3.103,3520.19,90.0,0.0,0,3116,24,45,2957.7924775686106,3470.217869419404,1999.9999999999998,90.0
3.111,3674.17,90.0,0.0,0,3137,24,43,3323.298221947042,3604.1872369292646,1999.9999999999998,90.0
3.119,3792.83,90.0,0.0,0,3169,24,44,3816.5694988875634,3785.5906005415577,1999.9999999999998,90.0
3.125,3931.34,90.0,0.0,0,3184,24,43,3976.521970816078,3955.1780728965296,1999.9999999999998,90.0
3.133,4071.09,90.0,0.0,0,3199,24,40,3978.1499463537766,4074.4174257046934,1999.9999999999998,90.0
3.14,4175.15,90.0,0.0,0,3217,24,39,4130.425471735478,4337.759541587518,1999.9999999999998,90.0
3.148,4390.48,90.0,0.0,0,3246,24,36,3576.9359055969526,4418.098346262335,1999.9999999999998,90.0
3.153,4508.26,90.0,0.0,0,3273,24,36,3587.7268723263187,4549.710324481931,1999.9999999999998,90.0
3.157,4639.92,90.0,0.0,0,3273,24,36,3557.5767905891676,4624.245134100791,1999.9999999999998,90.0
3.164,4718.67,90.0,0.0,0,3291,24,34,3692.191639330246,4724.9177825834,1999.9999999999998,90.0
3.171,4808.14,90.0,0.0,0,3308,24,32,3798.5703654812846,4884.7137310428,1999.9999999999998,90.0
3.182,4955.62,90.0,0.0,0,3310,24,30,3493.06780148769,5048.55243140054,1999.9999999999998,90.0
3.189,5142.65,90.0,0.0,0,3338,24,29,3155.782426629893,5169.321350934262,1999.9999999999998,90.0
3.197,5309.82,90.0,0.0,0,3355,24,26,3204.988731667084,5305.017239575352,1999.9999999999998,90.0
3.207,5471.36,90.0,0.0,0,3374,24,25,3415.1186883012383,5461.664598885739,1999.9999999999998,90.0
3.217,5633.08,90.0,0.0,0,3379,24,24,3667.8835976822147,5656.557785145758,1999.9999999999998,90.0
3.226,5819.23,90.0,0.0,0,3394,24,23,3700.740706905051,5850.695239933809,1999.9999999999998,90.0
3.235,6013.82,90.0,0.0,0,3406,24,20,3680.8170240575887,6042.545231068651,1999.9999999999998,90.0
3.242,6209.82,90.0,0.0,0,3421,24,19,3679.942890207397,6217.147644905781,1999.9999999999998,90.0
3.246,6388.94,90.0,0.0,0,3419,24,16,3780.36670612917,6373.322714372763,1999.9999999999998,90.0
3.252,6537.83,90.0,0.0,0,3439,24,17,3885.1477831891807,6462.692466512708,1999.9999999999998,90.0
3.261,6615.17,90.0,0.0,0,3444,24,16,4243.043132441555,6618.511097655536,1999.9999999999998,90.0
3.269,6728.02,90.0,0.0,0,3444,24,15,4348.283747206475,6856.302811845395,1999.9999999999998,90.0
3.278,6922.79,90.0,0.0,0,3456,24,13,3804.31649335164,6986.221896416517,1999.9999999999998,90.0
3.285,7081.52,90.0,0.0,0,3459,24,13,3573.8449803702647,7163.146696652252,1999.9999999999998,90.0
3.291,7282.08,90.0,0.0,0,3472,24,11,3354.236344669441,7265.641932938792,1999.9999999999998,90.0
3.296,7417.44,90.0,0.0,0,3479,24,14,3572.5676470281824,7408.926588845714,1999.9999999999998,90.0
3.301,7558.06,90.0,0.0,0,3477,24,12,3679.461156079723,7502.366574877206,1999.9999999999998,90.0
3.309,7647.36,90.0,0.0,0,3487,24,9,3944.0117292648492,7627.515995955736,1999.9999999999998,90.0
3.319,7747.38,90.0,0.0,0,3482,24,12,4250.545977529868,7891.525013152626,1999.9999999999998,90.0
3.324,7967.81,90.0,0.0,0,3490,24,11,3598.821129206059,8015.241831814515,1999.9999999999998,90.0
3.333,8137.44,90.0,0.0,0,3500,24,11,3531.4423665297663,8121.859355205862,1999.9999999999998,90.0
3.342,8260.83,90.0,0.0,0,3498,24,10,3790.481113248276,8312.997320091616,1999.9999999999998,90.0
3.35,8440.66,90.0,0.0,0,3513,24,9,3657.328751234364,8467.52652505343,1999.9999999999998,90.0
3.357,8611.52,90.0,0.0,0,3508,24,10,3670.8098640858116,8670.249388329608,1999.9999999999998,90.0
3.365,8824.57,90.0,0.0,0,3519,24,7,3549.7599674432076,8780.801433542378,1999.9999999999998,90.0
3.373,8954.64,90.0,0.0,0,3519,24,8,3921.1972480876666,8967.883639727763,1999.9999999999998,90.0
3.381,9116.36,90.0,0.0,0,3529,24,8,3988.2140777730915,9163.64340536573,1999.9999999999998,90.0
3.392,9300.23,90.0,0.0,0,3532,24,7,3849.775654281987,9352.427985623593,1999.9999999999998,90.0
3.4,9493.76,90.0,0.0,0,3535,24,7,3720.884845319541,9499.60363955512,1999.9999999999998,90.0
3.406,9654.25,90.0,0.0,0,3529,24,5,3842.16796364193,9683.555828108858,1999.9999999999998,90.0
3.411,9832.14,90.0,0.0,0,3535,24,6,3828.913383381782,9822.727047778193,1999.9999999999998,90.0
3.422,9972.59,90.0,0.0,0,3540,24,5,3945.7251115355516,9940.817674294985,1999.9999999999998,90.0
3.433,10078.76,90.0,0.0,0,3537,24,5,4448.124734920223,10294.001398378696,1999.9999999999998,90.0
3.439,10368.28,90.0,0.0,0,3543,24,5,3437.4887411629534,10384.077475533739,1999.9999999999998,90.0
3.451,10534.39,90.0,0.0,0,3548,24,2,3560.083687936766,10609.220501771972,1999.9999999999998,90.0
3.456,10780.13,90.0,0.0,0,3540,24,4,3352.843560765596,10723.97554920972,1999.9999999999998,90.0
3.459,10931.3,90.0,0.0,0,3553,24,5,3606.5815600588703,10828.684692358538,1999.9999999999998,90.0
3.463,11023.76,90.0,0.0,0,3543,24,5,3914.0783305637333,10931.631774447344,1999.9999999999998,90.0
3.468,11099.53,90.0,0.0,0,3540,24,4,4232.72660754742,11056.483333293301,1999.9999999999998,90.0
3.476,11188.65,90.0,0.0,0,3551,24,5,4570.1219401820135,11287.55795823567,1999.9999999999998,90.0
3.485,11361.44,90.0,0.0,0,3543,24,4,4123.872458112582,11455.677241004509,1999.9999999999998,90.0
3.492,11536.87,90.0,0.0,0,3553,24,4,3863.88433690717,11555.74378293981,1999.9999999999998,90.0
3.496,11654.82,90.0,0.0,0,3553,24,3,3896.2961387781493,11709.65448553767,1999.9999999999998,90.0
3.504,11804.58,90.0,0.0,0,3543,24,2,3809.8942429125354,11797.622134991301,1999.9999999999998,90.0
3.514,11900.56,90.0,0.0,0,3559,24,3,4003.557938937475,12003.55234992243,1999.9999999999998,90.0
3.521,12089.35,90.0,0.0,0,3561,24,3,3566.599132686003,12145.457552141414,1999.9999999999998,90.0
3.53,12269.88,90.0,0.0,0,3537,24,4,3432.7579094245784,12283.685907733245,1999.9999999999998,90.0
3.537,12438.63,90.0,0.0,0,3559,24,3,3534.8451135338737,12451.074419065726,1999.9999999999998,90.0
3.546,12620.39,90.0,0.0,0,3567,24,4,3628.769951824788,12611.62399650666,1999.9999999999998,90.0
3.55,12788.78,90.0,0.0,0,3559,24,2,3800.8570709771143,12766.718492476411,1999.9999999999998,90.0
3.558,12936.62,90.0,0.0,0,3551,24,3,4040.2233624269365,12949.544516708806,1999.9999999999998,90.0
3.563,13098.33,90.0,0.0,0,3570,24,4,4071.2779490515845,13055.747041596276,1999.9999999999998,90.0
3.572,13194.31,90.0,0.0,0,3551,24,4,4389.725246406742,13260.16715808134,1999.9999999999998,90.0
3.578,13354.45,90.0,0.0,0,3575,24,4,4134.387155945642,13438.840452653452,1999.9999999999998,90.0
3.586,13529.17,90.0,0.0,0,3567,24,3,3903.489499385936,13545.828057989442,1999.9999999999998,90.0
3.595,13650.11,90.0,0.0,0,3559,24,4,3945.4388276709365,13710.294571359196,1999.9999999999998,90.0
3.599,13808.49,90.0,0.0,0,3567,24,3,3754.373097899038,13870.871976493301,1999.9999999999998,90.0
3.604,13984.98,90.0,0.0,0,3561,24,2,3664.200483249996,13942.71548511119,1999.9999999999998,90.0
3.612,14071.11,90.0,0.0,0,3570,24,3,4022.984097733519,14135.941273085444,1999.9999999999998,90.0
3.62,14235.29,90.0,0.0,0,3559,24,3,3837.039444100739,14271.293127146904,1999.9999999999998,90.0
3.627,14383.3,90.0,0.0,0,3559,24,2,3792.8698425581592,14414.459542676876,1999.9999999999998,90.0
3.635,14531.83,90.0,0.0,0,3572,24,3,3774.0672837746056,14555.354705002164,1999.9999999999998,90.0
3.639,14678.08,90.0,0.0,0,3564,24,1,3792.87231840926,14718.84165793599,1999.9999999999998,90.0
3.648,14845.25,90.0,0.0,0,3572,24,0,3728.8308366451,14860.196712351144,1999.9999999999998,90.0
3.657,14997.83,90.0,0.0,0,3567,24,2,3792.673529501874,15021.549194596817,1999.9999999999998,90.0
3.664,15159.72,90.0,0.0,0,3567,24,2,3808.294400510392,15177.505555113261,1999.9999999999998,90.0
3.669,15317.22,90.0,0.0,0,3561,24,2,3848.6642295340557,15326.910139381627,1999.9999999999998,90.0
3.675,15465.05,90.0,0.0,0,3564,24,1,3901.699325268201,15437.611879761582,1999.9999999999998,90.0
3.682,15570.35,90.0,0.0,0,3570,24,0,4130.332634521054,15605.811186177558,1999.9999999999998,90.0
3.69,15713.08,90.0,0.0,0,3567,24,2,4069.945763446927,15759.968460633176,1999.9999999999998,90.0
3.697,15861.79,90.0,0.0,0,3572,24,2,3928.540123220469,15951.16912383354,1999.9999999999998,90.0
3.701,16054.8,90.0,0.0,0,3570,24,4,3695.4321723814237,16046.987373548813,1999.9999999999998,90.0
3.709,16173.1,90.0,0.0,0,3567,24,3,3830.258150047581,16176.83652826836,1999.9999999999998,90.0
3.715,16295.8,90.0,0.0,0,3567,24,1,3931.759944210554,16332.724468814919,1999.9999999999998,90.0
3.725,16442.92,90.0,0.0,0,3564,24,1,3891.666671103107,16440.42520130684,1999.9999999999998,90.0
3.731,16552.61,90.0,0.0,0,3561,24,2,4068.3488680393025,16667.833196285388,1999.9999999999998,90.0
3.739,16758.98,90.0,0.0,0,3564,24,3,3632.04792876641,16785.860419339737,1999.9999999999998,90.0
3.747,16914.37,90.0,0.0,0,3561,24,3,3643.598038413341,16932.956005768043,1999.9999999999998,90.0
3.754,17072.22,90.0,0.0,0,3567,24,3,3698.248523840905,17096.57766509501,1999.9999999999998,90.0
3.758,17242.55,90.0,0.0,0,3564,24,3,3716.745990454125,17243.094856889657,1999.9999999999998,90.0
3.765,17396.01,90.0,0.0,0,3575,24,2,3791.4895450037643,17335.830620867837,1999.9999999999998,90.0
3.772,17484.96,90.0,0.0,0,3589,24,3,4176.333649857598,17518.588118889576,1999.9999999999998,90.0
3.779,17631.03,90.0,0.0,0,3575,24,2,4111.224868535225,17704.025613784717,1999.9999999999998,90.0
3.784,17805.05,90.0,0.0,0,3575,24,2,3928.153605829757,17812.188461426776,1999.9999999999998,90.0
3.792,17922.83,90.0,0.0,0,3572,24,1,3999.249819538549,17952.93347585688,1999.9999999999998,90.0
3.8,18053.61,90.0,0.0,0,3575,24,3,3961.045028617926,18161.92598306784,1999.9999999999998,90.0
3.808,18258.75,90.0,0.0,0,3561,24,1,3652.280929764808,18252.998943607665,1999.9999999999998,90.0
3.815,18380.03,90.0,0.0,0,3575,24,2,3829.1398709777964,18427.22722836363,1999.9999999999998,90.0
3.82,18546.67,90.0,0.0,0,3572,24,2,3725.6812865796705,18577.254678489033,1999.9999999999998,90.0
3.826,18709.45,90.0,0.0,0,3567,24,1,3718.2983249357235,18663.153264968994,1999.9999999999998,90.0
3.832,18799.27,90.0,0.0,0,3572,24,0,3998.54769784679,18811.00319034496,1999.9999999999998,90.0
3.838,18923.2,90.0,0.0,0,3548,24,2,4052.4204027062215,18967.157945866365,1999.9999999999998,90.0
3.845,19068.75,90.0,0.0,0,3572,24,1,3976.178085684617,19086.63662398215,1999.9999999999998,90.0
3.854,19188.28,90.0,0.0,0,3575,24,2,4015.4114624783383,19298.30136202553,1999.9999999999998,90.0
3.862,19389.9,90.0,0.0,0,3556,24,2,3644.684269302588,19405.850700622694,1999.9999999999998,90.0
3.869,19530.17,90.0,0.0,0,3572,24,0,3711.668840207451,19567.929282851106,1999.9999999999998,90.0
3.877,19696.64,90.0,0.0,0,3567,24,0,3667.587213739276,19705.46183085927,1999.9999999999998,90.0
3.881,19848.33,90.0,0.0,0,3575,24,2,3769.680590630106,19873.300478573507,1999.9999999999998,90.0
3.885,20015.33,90.0,0.0,0,3570,24,3,3776.5573131988917,19968.15822582165,1999.9999999999998,90.0
3.896,20115.0,90.0,0.0,0,3567,24,2,4090.11284763789,20136.16272528573,1999.9999999999998,90.0
3.903,20251.58,90.0,0.0,0,3578,24,0,4098.182675628062,20326.294546111563,1999.9999999999998,90.0
3.91,20428.06,90.0,0.0,0,3575,24,1,3858.335413415169,20462.43754795745,1999.9999999999998,90.0
3.918,20579.76,90.0,0.0,0,3567,24,2,3821.234097878797,20603.282247010295,1999.9999999999998,90.0
3.924,20724.08,90.0,0.0,0,3583,24,2,3837.772574290917,20781.72261260677,1999.9999999999998,90.0
3.931,20905.66,90.0,0.0,0,3561,24,3,3663.244214065981,20943.5911822581,1999.9999999999998,90.0
3.937,21087.59,90.0,0.0,0,3559,24,2,3640.0134561770005,21019.08234811809,1999.9999999999998,90.0
3.943,21171.09,90.0,0.0,0,3561,24,2,4165.263705852851,21239.01560513276,1999.9999999999998,90.0
3.951,21348.1,90.0,0.0,0,3570,24,0,4004.6499598028468,21346.31690487907,1999.9999999999998,90.0
3.956,21460.95,90.0,0.0,0,3572,24,2,4121.365431355509,21514.620790652538,1999.9999999999998,90.0
3.963,21610.19,90.0,0.0,0,3561,24,1,4017.419632661989,21620.690914721683,1999.9999999999998,90.0
3.967,21719.17,90.0,0.0,0,3564,24,1,4076.067776117032,21779.699352731513,1999.9999999999998,90.0
3.977,21864.9,90.0,0.0,0,3570,24,0,3906.6071404509466,21918.922806037797,1999.9999999999998,90.0
3.984,22012.38,90.0,0.0,0,3572,24,2,3739.162723164503,22094.40262316317,1999.9999999999998,90.0
3.988,22203.98,90.0,0.0,0,3578,24,2,3557.904853431266,22179.59694362423,1999.9999999999998,90.0
3.992,22312.79,90.0,0.0,0,3575,24,2,3699.497669793017,22271.09407702898,1999.9999999999998,90.0
3.997,22397.51,90.0,0.0,0,3575,24,1,3899.382122201679,22381.153028062887,1999.9999999999998,90.0
4.007,22491.38,90.0,0.0,0,3567,24,1,4033.2528238064942,22501.77342565533,1999.9999999999998,90.0
4.014,22597.38,90.0,0.0,0,3575,24,0,4118.869529356778,22737.075792247866,1999.9999999999998,90.0
4.021,22812.01,90.0,0.0,0,3580,24,2,3613.4535003105348,22835.065839558043,1999.9999999999998,90.0
4.029,22952.46,90.0,0.0,0,3572,24,0,3649.295660935602,23004.904756910986,1999.9999999999998,90.0
4.033,23134.04,90.0,0.0,0,3570,24,2,3546.0792319600173,23127.84251081414,1999.9999999999998,90.0
4.038,23278.35,90.0,0.0,0,3567,24,2,3633.362268179406,23206.983308806262,1999.9999999999998,90.0
4.047,23356.4,90.0,0.0,0,3572,24,3,3995.5478305319484,23355.07758654785,1999.9999999999998,90.0
4.055,23475.05,90.0,0.0,0,3567,24,0,4142.187162813774,23568.505665207114,1999.9999999999998,90.0
4.061,23665.07,90.0,0.0,0,3572,24,0,3665.185591004871,23755.112448425985,1999.9999999999998,90.0
4.071,23883.92,90.0,0.0,0,3572,24,1,3428.821061379286,23847.62235543199,1999.9999999999998,90.0
4.079,24010.31,90.0,0.0,0,3564,24,2,3759.487957659728,24018.81604580278,1999.9999999999998,90.0
4.088,24168.51,90.0,0.0,0,3575,24,3,3869.805657286184,24214.98676933224,1999.9999999999998,90.0
4.098,24360.11,90.0,0.0,0,3567,24,1,3717.8125580806045,24440.149512865355,1999.9999999999998,90.0
4.105,24602.16,90.0,0.0,0,3578,24,1,3456.9997894791586,24568.228727685957,1999.9999999999998,90.0
4.111,24767.4,90.0,0.0,0,3570,24,1,3740.1374254600887,24721.013185529257,1999.9999999999998,90.0
4.118,24908.9,90.0,0.0,0,3572,24,1,4054.893394588834,24888.466961301783,1999.9999999999998,90.0
4.123,25047.07,90.0,0.0,0,3578,24,3,4257.330111593554,25071.896445923663,1999.9999999999998,90.0
4.131,25199.47,90.0,0.0,0,3575,24,2,4232.672825060349,25268.342099356538,1999.9999999999998,90.0
4.135,25376.66,90.0,0.0,0,3575,24,2,4101.715391713276,25353.755797649774,1999.9999999999998,90.0
4.145,25465.6,90.0,0.0,0,3572,24,1,4298.210651257306,25527.782723290053,1999.9999999999998,90.0
4.152,25607.63,90.0,0.0,0,3567,24,2,4078.471215471035,25697.313960910113,1999.9999999999998,90.0
4.156,25777.44,90.0,0.0,0,3572,24,3,3813.0922699288035,25807.711517592048,1999.9999999999998,90.0
4.164,25906.99,90.0,0.0,0,3578,24,1,3800.7904626613163,25916.076902528628,1999.9999999999998,90.0
4.173,26018.61,90.0,0.0,0,3564,24,0,3888.9146519229284,26084.747216118027,1999.9999999999998,90.0
4.181,26183.84,90.0,0.0,0,3564,24,0,3658.3589995269544,26247.365085899866,1999.9999999999998,90.0
4.188,26368.76,90.0,0.0,0,3572,24,0,3491.694872872326,26376.23793931785,1999.9999999999998,90.0
