time,motor_angle,motor_setpoint,pendulum_angle,pendulum_setpoint,rpm,voltage,current,e_speed,e_angle,setSpeed,setAngle
1.9,0.0,0,0.0,0,0,0,0,0.0,0.0,1999.9999999999998,90.0
1.905,0.0,90.0,0.0,0,0,0,0,12447.53074645996,0.0,1999.9999999999998,90.0
1.91,0.0,90.0,0.0,0,0,3.602359576116296,0,11842.193978175454,413.9438828415222,1999.9999999999998,90.0
1.914,0.0,90.0,0.0,0,0,3.602359576116296,0,10278.292773010406,589.1050738630948,1999.9999999999998,90.0
1.919,0.35000000000000003,90.0,0.0,0,0,3.602359576116296,87,8386.331067064955,669.4507442146688,1999.9999999999998,90.0
1.923,1.23,90.0,0.0,0,23,3.602359576116296,84,6341.448561417269,681.9073700099391,1999.9999999999998,90.0
1.926,2.98,90.0,0.0,0,73,3.602359576116296,82,4359.868868120397,641.9404901123709,1999.9999999999998,90.0
1.931,5.09,90.0,0.0,0,95,3.6620917244365496,78,2430.530434209544,560.6299858299687,1999.9999999999998,90.0
1.938,7.73,90.0,0.0,0,118,3.791944220784928,76,687.5889857188942,446.68058173853063,1999.9999999999998,90.0
1.95,11.25,90.0,0.0,0,141,3.849079319178214,75,-1869.39198308378,204.97384961134574,1999.9999999999998,90.0
1.958,21.26,90.0,0.0,0,197,3.9088114674984684,71,-2968.7873894140725,-68.8132689562506,1999.9999999999998,90.0
1.97,34.8,90.0,0.0,0,245,3.968543615818722,68,-1916.3608327829716,-194.59448742082176,1999.9999999999998,90.0
1.981,53.43,90.0,0.0,0,300,4.1139784117289055,62,-143.61106731643898,-147.6138968775019,1999.9999999999998,90.0
1.992,72.42,90.0,0.0,0,343,4.238636808223348,59,1420.7992976526073,-1.000667666878508,1999.9999999999998,90.0
1.998,98.61,90.0,0.0,0,392,4.381474554206564,58,1777.1162578092703,108.77836167636138,1999.9999999999998,90.0
2.006,118.12,90.0,0.0,0,427,4.49314770106617,57,1685.488413795389,178.30286029837725,1999.9999999999998,90.0
2.014,136.05,90.0,0.0,0,457,4.62040314748758,58,1327.7526790615566,225.27723693501096,1999.9999999999998,90.0
2.021,157.14,90.0,0.0,0,487,4.711299894931445,57,666.984161014661,243.632184317159,1999.9999999999998,90.0
2.032,191.42,90.0,0.0,0,533,4.789211392740472,55,407.530330745635,233.11716574732586,1999.9999999999998,90.0
2.038,210.23,90.0,0.0,0,555,4.867122890549498,55,207.91066621822205,228.13796323550253,1999.9999999999998,90.0
2.047,244.51,90.0,0.0,0,591,4.986587187190007,52,190.86794724390018,228.0224100530953,1999.9999999999998,90.0
2.055,267.36,90.0,0.0,0,617,5.043722285583293,51,394.71469047480895,251.1333368523922,1999.9999999999998,90.0
2.066,306.73,90.0,0.0,0,654,5.137216082954125,50,523.6955066415547,275.72850986272664,1999.9999999999998,90.0
2.072,334.68,90.0,0.0,0,678,5.2047393810552816,49,794.3354309729554,329.03572176755574,1999.9999999999998,90.0
2.08,376.69,90.0,0.0,0,713,5.300830228353082,48,842.9255217728601,359.97063360953314,1999.9999999999998,90.0
2.089,403.06,90.0,0.0,0,735,5.363159426600303,47,978.7850624881114,416.16641419363526,1999.9999999999998,90.0
2.097,440.68,90.0,0.0,0,763,5.454056174044167,48,929.0405365680735,460.69533227805715,1999.9999999999998,90.0
2.107,484.62,90.0,0.0,0,792,5.511191272437454,45,844.4911560063455,498.1114365878796,1999.9999999999998,90.0
2.111,531.21,90.0,0.0,0,826,5.583908670392546,43,815.1490892714077,526.9611847936444,1999.9999999999998,90.0
2.115,563.73,90.0,0.0,0,843,5.659223118274605,42,846.5966237086792,547.7314941961358,1999.9999999999998,90.0
2.119,584.12,90.0,0.0,0,854,5.747522815791502,43,923.1696214094966,578.7539957295166,1999.9999999999998,90.0
2.126,608.73,90.0,0.0,0,870,5.791672664549951,43,954.097901301279,602.4247523127115,1999.9999999999998,90.0
2.134,632.46,90.0,0.0,0,885,5.820240213746594,44,1019.2638895252221,651.7811524146202,1999.9999999999998,90.0
2.14,671.48,90.0,0.0,0,907,5.861793012578075,43,955.5853828621078,685.0439035034063,1999.9999999999998,90.0
2.151,712.96,90.0,0.0,0,931,5.900748761482588,41,909.4786910724538,732.7596492810065,1999.9999999999998,90.0
2.164,766.58,90.0,0.0,0,954,5.957883859875874,38,828.3773554502206,773.3541530058279,1999.9999999999998,90.0
2.169,825.64,90.0,0.0,0,981,6.020213058123097,36,841.2172741842646,818.3192758776015,1999.9999999999998,90.0
2.179,887.51,90.0,0.0,0,1008,6.07994520644335,35,893.5850202140513,846.0391978758536,1999.9999999999998,90.0
2.191,919.33,90.0,0.0,0,1015,6.150065554471475,36,1316.001504166627,953.9377898135164,1999.9999999999998,90.0
2.199,996.5,90.0,0.0,0,1049,6.2201859024995985,33,1104.8690303204653,1008.4719811550349,1999.9999999999998,90.0
2.208,1060.66,90.0,0.0,0,1076,6.238365251988371,32,1079.8878529240326,1043.177413252371,1999.9999999999998,90.0
2.216,1102.32,90.0,0.0,0,1091,6.326664949505268,32,1249.5850983329933,1127.9513273549392,1999.9999999999998,90.0
2.222,1171.05,90.0,0.0,0,1111,6.396785297533393,30,1164.2930713147666,1162.133380660019,1999.9999999999998,90.0
2.227,1217.1,90.0,0.0,0,1124,6.435741046437906,31,1229.1090243830342,1215.4371613914132,1999.9999999999998,90.0
2.237,1260.35,90.0,0.0,0,1142,6.487682044977257,30,1257.0599430949044,1267.8828726489587,1999.9999999999998,90.0
2.243,1308.8600000000001,90.0,0.0,0,1153,6.521443694027836,30,1237.5973113421212,1330.9141421821723,1999.9999999999998,90.0
2.255,1371.62,90.0,0.0,0,1173,6.568190592713252,30,1135.200659126065,1383.6762093294176,1999.9999999999998,90.0
2.264,1433.67,90.0,0.0,0,1193,6.596758141909895,29,1104.851847133053,1431.41722235796,1999.9999999999998,90.0
2.275,1495.89,90.0,0.0,0,1208,6.648699140449246,28,1158.4192215326477,1492.5738336766403,1999.9999999999998,90.0
2.285,1557.07,90.0,0.0,0,1225,6.7006401389885974,27,1220.5743366376878,1564.351044004086,1999.9999999999998,90.0
2.291,1634.94,90.0,0.0,0,1243,6.739595887893111,27,1206.4356291572126,1646.0675935660418,1999.9999999999998,90.0
2.295,1727.05,90.0,0.0,0,1265,6.783745736651559,26,1188.4196412092342,1679.7636415621018,1999.9999999999998,90.0
2.303,1762.2,90.0,0.0,0,1277,6.8304926353369755,27,1285.509013906092,1708.8446406681426,1999.9999999999998,90.0
2.309,1787.69,90.0,0.0,0,1282,6.8876277337302625,27,1628.2358693860492,1812.205848477304,1999.9999999999998,90.0
2.316,1856.95,90.0,0.0,0,1300,6.918792332853872,26,1532.5696825253608,1860.4824600538034,1999.9999999999998,90.0
2.326,1902.48,90.0,0.0,0,1312,6.931777582488712,27,1522.6619382177037,1932.048103111158,1999.9999999999998,90.0
2.337,1963.65,90.0,0.0,0,1327,6.9785244811741265,26,1305.9568920144602,2016.6363601368244,1999.9999999999998,90.0
2.344,2063.84,90.0,0.0,0,1347,7.009689080297737,25,1056.2910779933102,2049.404416852493,1999.9999999999998,90.0
2.351,2126.77,90.0,0.0,0,1364,7.048644829202251,25,1162.9556625329562,2100.9007447683475,1999.9999999999998,90.0
2.357,2184.96,90.0,0.0,0,1375,7.100585827741602,25,1337.2690701629517,2171.3291055663685,1999.9999999999998,90.0
2.37,2255.8,90.0,0.0,0,1393,7.1447356765000505,24,1422.8684103259345,2234.2288791601773,1999.9999999999998,90.0
2.382,2306.95,90.0,0.0,0,1399,7.173303225696693,25,1690.1536530348064,2395.1829760328546,1999.9999999999998,90.0
2.389,2446.69,90.0,0.0,0,1425,7.2200501243821105,23,1230.9440479953867,2426.4890373039125,1999.9999999999998,90.0
2.393,2515.07,90.0,0.0,0,1440,7.235632423943915,24,1343.8709143715673,2482.379424276232,1999.9999999999998,90.0
2.399,2571.15,90.0,0.0,0,1449,7.303155722045071,23,1434.9755192294333,2520.2118808150417,1999.9999999999998,90.0
2.409,2598.92,90.0,0.0,0,1459,7.342111470949586,23,1687.800592836348,2605.7614536883566,1999.9999999999998,90.0
2.417,2660.27,90.0,0.0,0,1468,7.365484920292294,24,1652.3260702865912,2692.5549928086944,1999.9999999999998,90.0
2.427,2741.3,90.0,0.0,0,1481,7.39145541956197,23,1450.8002523553853,2768.9086526783017,1999.9999999999998,90.0
2.435,2836.4,90.0,0.0,0,1499,7.414828868904678,22,1314.781683500807,2829.6495962163585,1999.9999999999998,90.0
2.438,2913.04,90.0,0.0,0,1513,7.448590517955256,22,1366.8651232456782,2879.916649734621,1999.9999999999998,90.0
2.447,2972.98,90.0,0.0,0,1528,7.495337416640671,21,1468.4684293006303,2921.974628925148,1999.9999999999998,90.0
2.455,3004.98,90.0,0.0,0,1534,7.531696115618217,22,1795.0956882358823,3033.7890231234664,1999.9999999999998,90.0
2.46,3090.41,90.0,0.0,0,1542,7.5706518645227305,22,1644.4751247793624,3103.6082694393344,1999.9999999999998,90.0
2.468,3161.42,90.0,0.0,0,1553,7.586234164084536,21,1608.4687832614359,3148.2835613466937,1999.9999999999998,90.0
2.475,3206.77,90.0,0.0,0,1564,7.6070105635002765,22,1691.591774427666,3233.0024622790374,1999.9999999999998,90.0
2.484,3286.58,90.0,0.0,0,1575,7.63557811269692,21,1563.4314891800475,3299.3855276765403,1999.9999999999998,90.0
2.488,3364.45,90.0,0.0,0,1587,7.6641456618935635,20,1521.485039181933,3358.7285045765034,1999.9999999999998,90.0
2.495,3431.77,90.0,0.0,0,1607,7.692713211090207,20,1547.6514405944422,3396.7680998814167,1999.9999999999998,90.0
2.503,3468.16,90.0,0.0,0,1599,7.723877810213817,20,1752.1318068838482,3490.9473509588356,1999.9999999999998,90.0
2.512,3541.46,90.0,0.0,0,1612,7.7758188087531686,19,1639.0231631068723,3562.1688624423196,1999.9999999999998,90.0
2.521,3622.32,90.0,0.0,0,1626,7.7550424093374275,19,1511.1521689877786,3654.1014359809396,1999.9999999999998,90.0
2.529,3726.21,90.0,0.0,0,1641,7.788804058388006,19,1352.5604460783204,3715.6484833026734,1999.9999999999998,90.0
2.533,3814.27,90.0,0.0,0,1648,7.825162757365552,17,1422.2631169137921,3768.8159122860243,1999.9999999999998,90.0
2.537,3873.69,90.0,0.0,0,1654,7.864118506270065,17,1523.2150167722484,3803.926946554779,1999.9999999999998,90.0
2.543,3905.85,90.0,0.0,0,1658,7.882297855758838,18,1767.176860855825,3874.3761304278432,1999.9999999999998,90.0
2.551,3953.84,90.0,0.0,0,1666,7.897880155320643,19,1895.387673123426,3951.027529762454,1999.9999999999998,90.0
2.56,4017.48,90.0,0.0,0,1671,7.908268355028515,18,1909.7594041939026,4055.323046685084,1999.9999999999998,90.0
2.571,4111.69,90.0,0.0,0,1684,7.929044754444255,16,1659.4498876014359,4143.197845177061,1999.9999999999998,90.0
2.578,4212.24,90.0,0.0,0,1697,7.9420300040790925,16,1493.078366248022,4212.865320384583,1999.9999999999998,90.0
2.582,4301.01,90.0,0.0,0,1704,7.97579165312967,16,1516.312695441654,4275.2632563349625,1999.9999999999998,90.0
2.591,4370.09,90.0,0.0,0,1715,8.00955330218025,15,1577.1528239985923,4307.9074529987265,1999.9999999999998,90.0
2.6,4404.37,90.0,0.0,0,1718,8.027732651669023,14,2013.5779753351771,4446.562078028364,1999.9999999999998,90.0
2.612,4502.98,90.0,0.0,0,1730,8.056300200865666,16,1727.8415221274913,4537.594149253246,1999.9999999999998,90.0
2.62,4611.26,90.0,0.0,0,1735,8.064091350646567,14,1456.5125510674993,4640.604752200008,1999.9999999999998,90.0
2.627,4748.55,90.0,0.0,0,1749,8.095255949770179,13,1352.5531896564246,4687.282611903549,1999.9999999999998,90.0
2.631,4819.04,90.0,0.0,0,1756,8.108241199405017,13,1624.4397861089913,4761.921591526772,1999.9999999999998,90.0
2.638,4882.32,90.0,0.0,0,1760,8.144599898382562,13,1744.3123215460676,4803.121844070828,1999.9999999999998,90.0
2.645,4918.35,90.0,0.0,0,1760,8.162779247871335,13,2171.877996229963,4931.716695584607,1999.9999999999998,90.0
2.656,5000.8,90.0,0.0,0,1774,8.173167447579207,13,2083.702012859679,5028.4323337802325,1999.9999999999998,90.0
2.666,5082.01,90.0,0.0,0,1776,8.173167447579207,13,1850.9051253450673,5154.957239911295,1999.9999999999998,90.0
2.672,5213.67,90.0,0.0,0,1791,8.209526146556751,13,1429.5904565566377,5208.616813426801,1999.9999999999998,90.0
2.676,5311.75,90.0,0.0,0,1800,8.214720246410685,11,1470.4059977688232,5253.286759767236,1999.9999999999998,90.0
2.68,5362.38,90.0,0.0,0,1801,8.253675995315199,12,1598.01819032421,5292.013433582323,1999.9999999999998,90.0
2.69,5399.64,90.0,0.0,0,1807,8.277049444657909,12,1892.9889266826442,5379.207379827609,1999.9999999999998,90.0
2.699,5462.22,90.0,0.0,0,1814,8.279646494584876,12,2046.4059691643424,5520.245745583732,1999.9999999999998,90.0
2.708,5577.36,90.0,0.0,0,1820,8.29522879414668,12,1814.8258914172955,5569.264948849312,1999.9999999999998,90.0
2.717,5648.9,90.0,0.0,0,1825,8.313408143635453,10,1908.507349913371,5729.818117707107,1999.9999999999998,90.0
2.729,5800.6,90.0,0.0,0,1833,8.32899044319726,12,1596.3565704740045,5764.121952971714,1999.9999999999998,90.0
2.734,5868.63,90.0,0.0,0,1841,8.341975692832097,10,1897.1611234403483,5897.866183868249,1999.9999999999998,90.0
2.746,5988.33,90.0,0.0,0,1841,8.362752092247838,10,1786.9218762058201,5953.951810742924,1999.9999999999998,90.0
2.754,6055.48,90.0,0.0,0,1849,8.383528491663577,10,2125.9238524451102,6138.020435108209,1999.9999999999998,90.0
2.762,6211.75,90.0,0.0,0,1854,8.383528491663577,10,1794.7364095741727,6179.600026582541,1999.9999999999998,90.0
2.766,6278.37,90.0,0.0,0,1861,8.404304891079319,9,1931.3147944913178,6257.826495271308,1999.9999999999998,90.0
2.77,6352.03,90.0,0.0,0,1865,8.417290140714156,9,1986.9701106436964,6309.85622056002,1999.9999999999998,90.0
2.774,6391.58,90.0,0.0,0,1870,8.43546949020293,9,2124.9886654438,6384.48217357788,1999.9999999999998,90.0
2.781,6444.66,90.0,0.0,0,1870,8.445857689910799,10,2139.350915653168,6440.3885212330915,1999.9999999999998,90.0
2.789,6488.78,90.0,0.0,0,1876,8.458842939545637,10,2149.0160997670796,6529.475906033053,1999.9999999999998,90.0
2.8,6572.63,90.0,0.0,0,1883,8.458842939545637,8,1925.311712738623,6609.650588002598,1999.9999999999998,90.0
2.811,6659.64,90.0,0.0,0,1886,8.474425239107443,10,1597.4575574253295,6734.793991664145,1999.9999999999998,90.0
2.82,6811.52,90.0,0.0,0,1890,8.492604588596215,8,1190.7575834786821,6773.316777175145,1999.9999999999998,90.0
2.829,6915.41,90.0,0.0,0,1896,8.500395738377119,7,1483.9155338631854,6861.795214880073,1999.9999999999998,90.0
2.841,7023.16,90.0,0.0,0,1904,8.510783938084987,8,1802.9584284008645,6963.1630068911045,1999.9999999999998,90.0
2.852,7115.09,90.0,0.0,0,1905,8.526366237646794,7,2462.0406492441143,7204.322999285655,1999.9999999999998,90.0
2.856,7295.62,90.0,0.0,0,1918,8.547142637062535,7,2025.1622376367475,7263.648324724664,1999.9999999999998,90.0
2.861,7376.66,90.0,0.0,0,1920,8.549739686989502,7,2108.5742927100946,7321.298688175831,1999.9999999999998,90.0
2.864,7419.19,90.0,0.0,0,1914,8.58350133604008,8,2249.7434844584836,7387.466728485419,1999.9999999999998,90.0
2.869,7471.23,90.0,0.0,0,1913,8.588695435894014,6,2323.76241605148,7450.277402118223,1999.9999999999998,90.0
2.875,7512.71,90.0,0.0,0,1921,8.57311313633221,8,2367.1300497182624,7512.102195071655,1999.9999999999998,90.0
2.883,7567.03,90.0,0.0,0,1926,8.570516086405242,8,2341.860220709372,7639.971179644371,1999.9999999999998,90.0
2.893,7659.31,90.0,0.0,0,1930,8.591292485820983,7,1986.9824116409557,7702.504669491131,1999.9999999999998,90.0
2.904,7748.43,90.0,0.0,0,1925,8.60427773545582,6,1681.6842974961285,7800.105857518105,1999.9999999999998,90.0
2.914,7878.86,90.0,0.0,0,1932,8.614665935163691,7,1347.4650127369653,7870.841162141958,1999.9999999999998,90.0
2.92,7995.58,90.0,0.0,0,1940,8.601680685528853,6,1429.1686118855582,7931.33243515485,1999.9999999999998,90.0
2.927,8086.64,90.0,0.0,0,1946,8.619860035017627,6,1810.5413995570807,8036.2843772084825,1999.9999999999998,90.0
2.935,8174.53,90.0,0.0,0,1948,8.640636434433366,5,2125.5809216547514,8165.984252174656,1999.9999999999998,90.0
2.943,8282.1,90.0,0.0,0,1953,8.656218733995171,6,2164.9141763680673,8275.597165524556,1999.9999999999998,90.0
2.95,8371.93,90.0,0.0,0,1948,8.661412833849106,5,2181.637070018364,8347.708334634797,1999.9999999999998,90.0
2.954,8436.44,90.0,0.0,0,1958,8.674398083483945,7,2279.28125482421,8447.436872891416,1999.9999999999998,90.0
2.958,8513.96,90.0,0.0,0,1957,8.661412833849106,5,2236.850204414185,8506.012462170147,1999.9999999999998,90.0
2.963,8567.75,90.0,0.0,0,1962,8.687383333118783,6,2249.011839775484,8555.926201101669,1999.9999999999998,90.0
2.97,8612.75,90.0,0.0,0,1959,8.684786283191816,6,2275.3382825209687,8620.414017991181,1999.9999999999998,90.0
2.976,8662.67,90.0,0.0,0,1958,8.697771532826653,7,2220.555258178648,8721.190730321774,1999.9999999999998,90.0
2.984,8753.73,90.0,0.0,0,1963,8.68998038304575,6,1982.9415680582674,8776.086947674288,1999.9999999999998,90.0
2.994,8827.03,90.0,0.0,0,1972,8.687383333118783,6,1872.6946024250817,8857.732607154578,1999.9999999999998,90.0
3.001,8919.84,90.0,0.0,0,1969,8.70036858275362,5,1687.7924569373893,8949.424554100555,1999.9999999999998,90.0
3.01,9039.72,90.0,0.0,0,1973,8.723742032096329,5,1568.2029731523896,9010.133197528836,1999.9999999999998,90.0
3.017,9130.78,90.0,0.0,0,1971,8.715950882315425,6,1749.371878857604,9097.249375142082,1999.9999999999998,90.0
3.029,9220.07,90.0,0.0,0,1978,8.726339082023296,6,1961.4395802600247,9207.395066729927,1999.9999999999998,90.0
3.032,9322.2,90.0,0.0,0,1982,8.72114498216936,5,2055.210085168498,9336.39466406546,1999.9999999999998,90.0
3.041,9445.78,90.0,0.0,0,1982,8.739324331658134,4,1990.7841107794682,9415.891628201412,1999.9999999999998,90.0
3.048,9528.22,90.0,0.0,0,1985,8.749712531366004,4,2112.036806351308,9500.33870485288,1999.9999999999998,90.0
3.052,9601.69,90.0,0.0,0,1985,8.749712531366004,4,2239.529320903408,9605.51752901344,1999.9999999999998,90.0
3.056,9682.91,90.0,0.0,0,1985,8.757503681146908,5,2223.740512042598,9655.761413686601,1999.9999999999998,90.0
3.063,9728.96,90.0,0.0,0,1992,8.757503681146908,5,2293.174533478018,9721.09534948778,1999.9999999999998,90.0
3.071,9779.06,90.0,0.0,0,1989,8.757503681146908,4,2316.516754947533,9831.58006747692,1999.9999999999998,90.0
3.08,9870.82,90.0,0.0,0,1997,8.77568303063568,5,2023.7221171422134,9913.113284629171,1999.9999999999998,90.0
3.087,9965.39,90.0,0.0,0,1992,8.767891880854776,4,1779.5858649758522,9995.526066040455,1999.9999999999998,90.0
3.097,10081.75,90.0,0.0,0,2000,8.788668280270517,6,1644.174307678259,10063.928603515462,1999.9999999999998,90.0
3.109,10167.01,90.0,0.0,0,1994,8.77568303063568,3,1800.7969842135817,10175.057023838028,1999.9999999999998,90.0
3.121,10292.69,90.0,0.0,0,1998,8.79645943005142,5,1770.999275513875,10287.75861473562,1999.9999999999998,90.0
3.13,10427.34,90.0,0.0,0,2003,8.780877130489614,4,1849.6946664972124,10430.204443577824,1999.9999999999998,90.0
3.134,10576.58,90.0,0.0,0,2006,8.791265330197485,4,1851.5577570938071,10506.694239607461,1999.9999999999998,90.0
3.139,10671.32,90.0,0.0,0,2013,8.804250579832322,3,2041.9758207924378,10570.708741041564,1999.9999999999998,90.0
3.142,10707.89,90.0,0.0,0,2007,8.812041729613226,2,2305.327144851001,10647.922451754603,1999.9999999999998,90.0
3.146,10762.38,90.0,0.0,0,2011,8.830221079102,4,2416.6445151395446,10702.297643493013,1999.9999999999998,90.0
3.151,10807.91,90.0,0.0,0,2006,8.814638779540193,4,2613.018114311475,10804.4343683539,1999.9999999999998,90.0
3.158,10863.1,90.0,0.0,0,2008,8.825026979248063,3,2603.1848136429358,10860.963377780341,1999.9999999999998,90.0
3.165,10910.39,90.0,0.0,0,2007,8.812041729613226,3,2571.299041037883,11003.040263137518,1999.9999999999998,90.0
3.176,11017.26,90.0,0.0,0,2011,8.817235829467162,4,2180.8607660385596,11056.370311624023,1999.9999999999998,90.0
3.187,11084.41,90.0,0.0,0,2010,8.814638779540193,3,1837.2680220333223,11190.492407059852,1999.9999999999998,90.0
3.197,11247.01,90.0,0.0,0,2014,8.825026979248063,3,1168.2070360615335,11225.85336450117,1999.9999999999998,90.0
3.206,11368.3,90.0,0.0,0,2023,8.822429929321096,3,1392.5693753559535,11310.959737808816,1999.9999999999998,90.0
3.215,11483.08,90.0,0.0,0,2018,8.832818129028965,4,1788.1653773656312,11422.581434032956,1999.9999999999998,90.0
3.225,11590.31,90.0,0.0,0,2026,8.856191578371675,2,2379.4271756362414,11632.425581757834,1999.9999999999998,90.0
3.229,11760.46,90.0,0.0,0,2023,8.843206328736837,3,2288.558865303522,11666.4454036849,1999.9999999999998,90.0
3.232,11804.23,90.0,0.0,0,2021,8.863982728152578,3,2525.7796636987887,11747.728496755213,1999.9999999999998,90.0
3.244,11856.97,90.0,0.0,0,2023,8.856191578371675,3,2754.525266245122,11881.53064749861,1999.9999999999998,90.0
3.252,11931.15,90.0,0.0,0,2022,8.85099747851774,3,2553.4652694807196,12014.95960203748,1999.9999999999998,90.0
